# Time (seconds),Voltage
0.0012499,2529
0.0037499,1071
0.0062499,0
0.0087499,275
0.0112499,1677
0.0137499,2858
0.016249899999999998,3051
0.0187499,2118
0.021249900000000002,557
0.023749899999999997,0
0.0262499,713
0.028749900000000002,2160
0.031249899999999997,3061
0.0337499,2858
0.0362499,1611
0.0387499,149
0.0412499,0
0.0437499,1216
0.0462499,2574
0.0487499,3130
0.0512499,2542
0.053749899999999996,1061
0.0562499,0
0.0587499,290
0.061249899999999996,1701
0.0637499,2876
0.0662499,3051
0.0687499,2101
0.0712499,417
0.0737499,0
0.0762499,733
0.0787499,2178
0.0812499,3074
0.0837499,2860
0.0862499,1603
0.0887499,145
0.0912499,3
0.0937499,1235
0.0962499,2584
0.0987499,3124
0.1012499,2524
0.1037499,1042
0.1062499,0
0.1087499,307
0.1112499,1722
0.1137499,2889
0.1162499,3058
0.1187499,2094
0.1212499,526
0.1237499,0
0.1262499,747
0.1287499,2188
0.1312499,3067
0.1337499,2840
0.1362499,1577
0.1387499,125
0.1412499,8
0.1437499,1242
0.1462499,2586
0.1487499,3113
0.1512499,2500
0.1537499,1018
0.1562499,0
0.1587499,322
0.1612499,1740
0.1637499,2893
0.1662499,3043
0.1687499,2068
0.1712499,505
0.1737499,0
0.17624990000000001,760
0.1787499,2197
0.1812499,3085
0.1837499,2760
0.1862499,1467
0.1887499,116
0.1912499,56
0.1937499,1301
0.1962499,2634
0.1987499,3135
0.2012499,2502
0.2037499,1005
0.2062499,0
0.20874990000000002,331
0.2112499,1746
0.2137499,2890
0.2162499,3029
0.2187499,2048
0.2212499,488
0.2237499,0
0.2262499,776
0.2287499,2209
0.2312499,3063
0.2337499,2810
0.2362499,1535
0.23874990000000001,106
0.2412499,40
0.2437499,1279
0.2462499,2610
0.2487499,3116
0.2512499,2478
0.25374990000000003,979
0.25624990000000003,0
0.25874990000000003,343
0.26124990000000003,1759
0.26374990000000004,2893
0.26624990000000004,3018
0.26874990000000004,2025
0.27124990000000004,467
0.27374990000000005,0
0.27624990000000005,787
0.27874990000000005,2213
0.28124990000000005,3055
0.28374990000000005,2792
0.28624990000000006,1508
0.28874990000000006,88
0.2912499,49
0.2937499,1295
0.2962499,2620
0.2987499,3109
0.3012499,2462
0.3037499,963
0.3062499,0
0.3087499,362
0.3112499,1786
0.3137499,2913
0.31624990000000003,3021
0.31874990000000003,2019
0.32124990000000003,464
0.32374990000000003,0
0.32624990000000004,818
0.32874990000000004,2246
0.33124990000000004,3069
0.33374990000000004,2789
0.33624990000000005,1495
0.33874990000000005,80
0.34124990000000005,56
0.34374990000000005,1314
0.34624990000000005,2632
0.34874990000000006,3109
0.35124990000000006,2452
0.3537499,950
0.3562499,0
0.3587499,381
0.3612499,1804
0.3637499,2919
0.3662499,3014
0.3687499,2001
0.3712499,452
0.3737499,0
0.3762499,834
0.37874990000000003,2260
0.38124990000000003,3074
0.38374990000000003,2781
0.38624990000000003,1479
0.38874990000000004,75
0.39124990000000004,66
0.39374990000000004,1334
0.39624990000000004,2637
0.39874990000000005,3093
0.40124990000000005,2423
0.40374990000000005,920
0.40624990000000005,0
0.40874990000000005,391
0.41124990000000006,1814
0.41374990000000006,2913
0.41624990000000006,2990
0.4187499,1972
0.4212499,433
0.4237499,0
0.4262499,852
0.4287499,2273
0.4312499,3077
0.4337499,2768
0.4362499,1459
0.4387499,72
0.44124990000000003,77
0.44374990000000003,1353
0.44624990000000003,2655
0.44874990000000003,3101
0.45124990000000004,2420
0.45374990000000004,918
0.45624990000000004,0
0.45874990000000004,360
0.46124990000000005,1769
0.46374990000000005,2876
0.46624990000000005,2966
0.46874990000000005,1961
0.47124990000000005,436
0.47374990000000006,0
0.47624990000000006,883
0.47874990000000006,2307
0.4812499,3098
0.4837499,2779
0.4862499,1458
0.4887499,69
0.4912499,85
0.4937499,1372
0.4962499,2668
0.4987499,3101
0.5012499,2408
0.5037499000000001,899
0.5062499,0
0.5087499000000001,423
0.5112499,1859
0.5137499,2945
0.5162499,3001
0.5187499,1959
0.5212499,418
0.5237499,0
0.5262499,892
0.5287499,2313
0.5312499,3092
0.5337499,2758
0.5362499000000001,1434
0.5387499,64
0.5412499000000001,96
0.5437499,1390
0.5462499000000001,2682
0.5487499,3106
0.5512499000000001,2399
0.5537499,881
0.5562499000000001,0
0.5587499,441
0.5612499000000001,1878
0.5637499,2951
0.5662499000000001,2989
0.5687499,1935
0.5712499000000001,401
0.5737499,0
0.5762499000000001,912
0.5787499,2330
0.5812499,3097
0.5837499,2748
0.5862499,1414
0.5887499,53
0.5912499,104
0.5937499,1405
0.5962499,2690
0.5987499000000001,3100
0.6012499,2381
0.6037499000000001,865
0.6062499,0
0.6087499000000001,459
0.6112499,1896
0.6137499000000001,2960
0.6162499,2984
0.6187499000000001,1920
0.6212499,389
0.6237499000000001,0
0.6262499,931
0.6287499000000001,2347
0.6312499,3103
0.6337499000000001,2740
0.6362499,1390
0.6387499000000001,40
0.6412499,183
0.6437499,1543
0.6462499,2781
0.6487499,3088
0.6512499,2371
0.6537499,847
0.6562499,0
0.6587499,480
0.6612499000000001,1922
0.6637499,2972
0.6662499000000001,2979
0.6687499,1898
0.6712499000000001,368
0.6737499,0
0.6762499000000001,949
0.6787499,2354
0.6812499000000001,3093
0.6837499,2719
0.6862499000000001,1369
0.6887499,33
0.6912499000000001,130
0.6937499,1456
0.6962499000000001,2732
0.6987499,3105
0.7012499000000001,2352
0.7037499,816
0.7062499,0
0.7087499,486
0.7112499,1930
0.7137499,2974
0.7162499,2976
0.7187499,1891
0.7212499,359
0.7237499000000001,0
0.7262499,971
0.7287499000000001,2433
0.7312499,3172
0.7337499000000001,2773
0.7362499,1392
0.7387499000000001,37
0.7412499,135
0.7437499000000001,1464
0.7462499,2732
0.7487499000000001,3098
0.7512499,2333
0.7537499000000001,796
0.7562499,0
0.7587499000000001,510
0.7612499,1954
0.7637499000000001,2984
0.7662499,2958
0.7687499000000001,1851
0.7712499,333
0.7737499,0
0.7762499,995
0.7787499,2400
0.7812499,3114
0.7837499,2707
0.7862499000000001,1329
0.7887499,9
0.7912499000000001,145
0.7937499,1485
0.7962499000000001,2748
0.7987499,3103
0.8012499000000001,2320
0.8037499,778
0.8062499000000001,0
0.8087499,518
0.8112499000000001,1964
0.8137499,2992
0.8162499000000001,2956
0.8187499,1838
0.8212499000000001,310
0.8237499,0
0.8262499000000001,1007
0.8287499,2418
0.8312499000000001,3122
0.8337499,2695
0.8362499,1303
0.8387499,3
0.8412499,156
0.8437499,1509
0.8462499,2773
0.8487499000000001,3109
0.8512499,2305
0.8537499000000001,752
0.8562499,0
0.8587499000000001,531
0.8612499,1978
0.8637499000000001,3001
0.8662499,2951
0.8687499000000001,1815
0.8712499,293
0.8737499000000001,0
0.8762499,1023
0.8787499000000001,2429
0.8812499,3121
0.8837499000000001,2681
0.8862499,1281
0.8887499000000001,1
0.8912499,170
0.8937499000000001,1540
0.8962499,2790
0.8987499,3108
0.9012499,2289
0.9037499,736
0.9062499,0
0.9087499,554
0.9112499000000001,2006
0.9137499,3014
0.9162499000000001,2951
0.9187499,1804
0.9212499000000001,285
0.9237499,0
0.9262499000000001,1047
0.9287499,2450
0.9312499000000001,3130
0.9337499,2673
0.9362499000000001,1260
0.9387499,0
0.9412499000000001,175
0.9437499,1546
0.9462499000000001,2795
0.9487499,3106
0.9512499000000001,2275
0.9537499,721
0.9562499000000001,0
0.9587499,573
0.9612499,2025
0.9637499,3027
0.9662499,2948
0.9687499,1786
0.9712499,273
0.9737499000000001,0
0.9762499,1066
0.9787499000000001,2470
0.9812499,3135
0.9837499000000001,2665
0.9862499,1245
0.9887499000000001,0
0.9912499,193
0.9937499000000001,1569
0.9962499,2808
0.9987499000000001,3063
1.0012499,2188
1.0037498999999999,636
1.0062499,0
1.0087499,584
1.0112499,2035
1.0137498999999999,3026
1.0162499,2932
1.0187499,1766
1.0212499,264
1.0237498999999999,0
1.0262498999999998,1086
1.0287499,2476
1.0312499,3126
1.0337498999999999,2637
1.0362498999999998,1214
1.0387499,0
1.0412499,204
1.0437499,1585
1.0462498999999998,2815
1.0487499,3092
1.0512499,2233
1.0537499,670
1.0562498999999999,0
1.0587499,613
1.0612499,2070
1.0637499,3045
1.0662498999999999,2932
1.0687499,1748
1.0712499,243
1.0737499,0
1.0762498999999999,1108
1.0787499,2494
1.0812499,3132
1.0837499,2629
1.0862498999999999,1195
1.0887499,0
1.0912499,217
1.0937499,1601
1.0962498999999999,2823
1.0987498999999998,3084
1.1012499,2106
1.1037499,544
1.1062499,0
1.1087498999999998,736
1.1112499,2077
1.1137499,3040
1.1162499,2918
1.1187498999999999,1728
1.1212499,235
1.1237499,0
1.1262499,1124
1.1287498999999999,2507
1.1312499,3130
1.1337499,2616
1.1362499,1179
1.1387498999999999,0
1.1412499,241
1.1437499,1641
1.1462499,2855
1.1487498999999999,3098
1.1512499,2204
1.1537499,636
1.1562499,0
1.1587498999999999,647
1.1612498999999998,2101
1.1637499,3058
1.1662499,2914
1.1687499,1708
1.1712498999999998,217
1.1737499,0
1.1762499,1145
1.1787499,2529
1.1812498999999999,3143
1.1837499,2615
1.1862499,1160
1.1887499,0
1.1912498999999999,241
1.1937499,1637
1.1962499,2847
1.1987499,3085
1.2012498999999999,2189
1.2037499,626
1.2062499,0
1.2087499,665
1.2112498999999999,2118
1.2137499,3061
1.2162499,2910
1.2187499,1693
1.2212498999999999,203
1.2237498999999998,0
1.2262499,1163
1.2287499,2541
1.2312499,3138
1.2337498999999998,2599
1.2362499,1140
1.2387499,0
1.2412499,256
1.2437498999999999,1659
1.2462499,2864
1.2487499,3087
1.2512499,2178
1.2537498999999999,615
1.2562499,0
1.2587499,686
1.2612499,2139
1.2637498999999999,3067
1.2662499,2892
1.2687499,1674
1.2712499,243
1.2737498999999999,4
1.2762499,1219
1.2787499,2595
1.2812499,3167
1.2837498999999999,2597
1.2862498999999998,1118
1.2887499,0
1.2912499,262
1.2937499,1670
1.2962498999999998,2873
1.2987499,3080
1.3012499,2155
1.3037499,586
1.3062498999999999,0
1.3087499,694
1.3112499,2147
1.3137499,3071
1.3162498999999999,2889
1.3187499,1650
1.3212499,175
1.3237499,0
1.3262498999999999,1195
1.3287499,2566
1.3312499,3142
1.3337499,2573
1.3362498999999999,1100
1.3387499,0
1.3412499,280
1.3437499,1691
1.3462498999999999,2881
1.3487498999999998,3077
1.3512499,2143
1.3537499,572
1.3562499,0
1.3587498999999998,720
1.3612499,2170
1.3637499,3079
1.3662499,2877
1.3687498999999999,1627
1.3712499,157
1.3737499,0
1.3762499,1213
1.3787498999999999,2578
1.3812499,3138
1.3837499,2553
1.3862499,1081
1.3887498999999999,0
1.3912499,293
1.3937499,1708
1.3962499,2889
1.3987498999999999,3071
1.4012499,2120
1.4037499,552
1.4062499,0
1.4087498999999999,731
1.4112498999999998,2183
1.4137499,3084
1.4162499,2869
1.4187499,1612
1.4212498999999998,148
1.4237499,1
1.4262499,1229
1.4287499,2584
1.4312498999999999,3132
1.4337499,2534
1.4362499,1052
1.4387499,0
1.4412498999999999,310
1.4437499,1735
1.4462499,2906
1.4487499,3071
1.4512498999999999,2107
1.4537499,539
1.4562499,0
1.4587499,747
1.4612498999999999,2193
1.4637499,3084
1.4662499,2864
1.4687499,1601
1.4712498999999999,146
1.4737498999999998,22
1.4762499,1260
1.4787499,2616
1.4812499,3146
1.4837498999999998,2533
1.4862499,1045
1.4887499,0
1.4912499,327
1.4937498999999999,1756
1.4962499,2918
1.4987499,3066
1.5012499,2088
1.5037498999999999,515
1.5062499,0
1.5087499,763
1.5112499,2205
1.5137498999999999,3080
1.5162499,2845
1.5187499,1572
1.5212499,130
1.5237498999999999,41
1.5262499,1282
1.5287499,2629
1.5312499,3146
1.5337498999999999,2516
1.5362499,1021
1.5387499,0
1.5412499,293
1.5437499,1699
1.5462498999999998,2864
1.5487499,3024
1.5512499,2059
1.5537499,502
1.5562498999999999,0
1.5587499,800
1.5612499,2249
1.5637499,3130
1.5662498999999999,2782
1.5687499,1434
1.5712499,51
1.5737499,46
1.5762498999999999,1293
1.5787499,2639
1.5812499,3146
1.5837499,2510
1.5862498999999999,1010
1.5887499,0
1.5912499,352
1.5937499,1786
1.5962498999999999,2934
1.5987499,3064
1.6012499,2070
1.6037499,505
1.6062499,0
1.6087498999999998,815
1.6112499,2263
1.6137499,3116
1.6162499,2845
1.6187498999999999,1548
1.6212499,112
1.6237499,53
1.6262499,1310
1.6287498999999999,2650
1.6312499,3145
1.6337499,2487
1.6362499,978
1.6387498999999999,0
1.6412499,370
1.6437499,1809
1.6462499,2945
1.6487498999999999,3055
1.6512499,2046
1.6537499,483
1.6562499,0
1.6587498999999999,829
1.6612499,2275
1.6637499,3113
1.6662499,2826
1.6687499,1514
1.6712498999999998,91
1.6737499,59
1.6762499,1329
1.6787499,2663
1.6812498999999999,3143
1.6837499,2476
1.6862499,961
1.6887499,0
1.6912498999999999,377
1.6937499,1811
1.6962499,2940
1.6987499,3043
1.7012498999999999,2025
1.7037499,462
1.7062499,0
1.7087499,849
1.7112498999999999,2294
1.7137499,3116
1.7162499,2815
1.7187499,1496
1.7212498999999999,78
1.7237499,67
1.7262499,1343
1.7287499,2671
1.7312499,3135
1.7337498999999998,2455
1.7362499,936
1.7387499,0
1.7412499,396
1.7437498999999999,1836
1.7462499,2958
1.7487499,3040
1.7512499,2004
1.7537498999999999,444
1.7562499,0
1.7587499,871
1.7612499,2315
1.7637498999999999,3127
1.7662499,2815
1.7687499,1485
1.7712499,77
1.7737498999999999,78
1.7762499,1372
1.7787499,2694
1.7812499,3145
1.7837498999999999,2449
1.7862499,923
1.7887499,0
1.7912499,410
1.7937499,1857
1.7962498999999998,2968
1.7987499,3037
1.8012499,1996
1.8037499,441
1.8062498999999999,0
1.8087499,879
1.8112499,2346
1.8137499,3177
1.8162498999999999,2856
1.8187499,1514
1.8212499,99
1.8237499,88
1.8262498999999999,1387
1.8287499,2703
1.8312499,3142
1.8337499,2434
1.8362498999999999,908
1.8387499,0
1.8412499,428
1.8437499,1878
1.8462498999999999,2979
1.8487499,3032
1.8512499,1977
1.8537499,417
1.8562499,0
1.8587498999999998,895
1.8612499,2334
1.8637499,3126
1.8662499,2787
1.8687498999999999,1440
1.8712499,53
1.8737499,96
1.8762499,1403
1.8787498999999999,2711
1.8812499,3138
1.8837499,2420
1.8862499,889
1.8887498999999999,0
1.8912499,444
1.8937499,1891
1.8962499,2979
1.8987498999999999,3018
1.9012499,1952
1.9037499,401
1.9062499,0
1.9087498999999999,912
1.9112499,2344
1.9137499,3119
1.9162499,2768
1.9187499,1417
1.9212498999999998,43
1.9237499,103
1.9262499,1419
1.9287499,2719
1.9312498999999999,3135
1.9337499,2404
1.9362499,865
1.9387499,0
1.9412498999999999,457
1.9437499,1909
1.9462499,2989
1.9487499,3014
1.9512498999999999,1933
1.9537499,380
1.9562499,0
1.9587499,926
1.9612498999999999,2359
1.9637499,3122
1.9662499,2755
1.9687499,1392
1.9712498999999999,30
1.9737499,114
1.9762499,1442
1.9787499,2740
1.9812499,3135
1.9837499,2384
1.9862499,839
1.9887499,0
1.9912499,476
1.9937498999999999,1932
1.9962499,3000
1.9987499,3009
2.0012499,1919
2.0037499,372
2.0062499,0
2.0087498999999998,955
2.0112499,2383
2.0137499,3134
2.0162499,2755
2.0187499,1380
2.0212499,0
2.0237499,194
2.0262499,1575
2.0287498999999998,2819
2.0312499,3135
2.0337499,2370
2.0362499,823
2.0387499,0
2.0412499,481
2.0437499,1935
2.0462499,2995
2.0487499,2995
2.0512498999999997,1898
2.0537499,357
2.0562499,0
2.0587499,978
2.0612499,2402
2.0637499,3137
2.0662499,2739
2.0687499,1355
2.0712498999999998,12
2.0737499,130
2.0762499,1469
2.0787499,2752
2.0812499,3116
2.0837499,2294
2.0862499,741
2.0887499,0
2.0912498999999998,496
2.0937499,1954
2.0962499,3009
2.0987499,2992
2.1012499,1878
2.1037499,339
2.1062499,0
2.1087499,992
2.1112499,2415
2.1137498999999997,3140
2.1162499,2731
2.1187499,1340
2.1212499,9
2.1237499,145
2.1262499,1496
2.1287499,2774
2.1312499,3130
2.1337498999999998,2342
2.1362499,789
2.1387499,0
2.1412499,523
2.1437499,1981
2.1462499,3021
2.1487499,2989
2.1512499,1864
2.1537498999999998,333
2.1562499,0
2.1587499,1008
2.1612499,2425
2.1637499,3138
2.1662499,2715
2.1687499,1321
2.1712499,8
2.1737499,157
2.1762499,1517
2.1787499,2787
2.1812499,3130
2.1837499,2328
2.1862499,770
2.1887499,0
2.1912499,541
2.1937499,2006
2.1962498999999998,3038
2.1987499,2987
2.2012499,1849
2.2037499,319
2.2062499,0
2.2087499,1036
2.2112499,2449
2.2137499,3142
2.2162498999999998,2699
2.2187499,1293
2.2212499,3
2.2237499,170
2.2262499,1535
2.2287499,2797
2.2312499,3121
2.2337499,2304
2.2362499,746
2.2387499,0
2.2412499,557
2.2437499,2017
2.2462499,3035
2.2487499,2972
2.2512499,1824
2.2537499,298
2.2562499,0
2.2587498999999998,1052
2.2612499,2463
2.2637499,3146
2.2662499,2690
2.2687499,1276
2.2712499,0
2.2737499,177
2.2762499,1551
2.2787498999999998,2811
2.2812499,3126
2.2837499,2299
2.2862499,741
2.2887499,0
2.2912499,581
2.2937499,2046
2.2962499,3055
2.2987499,2980
2.3012499,1819
2.3037499,290
2.3062499,0
2.3087499,1071
2.3112499,2479
2.3137499,3153
2.3162499,2687
2.3187499,1266
2.3212498999999998,0
2.3237499,193
2.3262499,1572
2.3287499,2824
2.3312499,3124
2.3337499,2288
2.3362499,728
2.3387499,0
2.3412498999999998,596
2.3437499,2054
2.3462499,3053
2.3487499,2963
2.3512499,1795
2.3537499,327
2.3562499,0
2.3587499,1147
2.3612499,2547
2.3637499,3180
2.3662499,2687
2.3687499,1247
2.3712499,0
2.3737499,201
2.3762499,1582
2.3787499,2824
2.3812499,3114
2.3837498999999998,2263
2.3862499,702
2.3887499,0
2.3912499,609
2.3937499,2072
2.3962499,3063
2.3987499,2956
2.4012499,1774
2.4037498999999998,262
2.4062499,0
2.4087499,1110
2.4112499,2512
2.4137499,3156
2.4162499,2660
2.4187499,1224
2.4212499,0
2.4237499,220
2.4262499,1616
2.4287499,2850
2.4312499,3117
2.4337499,2246
2.4362499,676
2.4387499,0
2.4412499,626
2.4437499,2085
2.4462498999999998,3059
2.4487499,2940
2.4512499,1749
2.4537499,249
2.4562499,0
2.4587499,1135
2.4612499,2531
2.4637499,3163
2.4662498999999998,2650
2.4687499,1200
2.4712499,0
2.4737499,312
2.4762499,1737
2.4787499,2918
2.4812499,3087
2.4837499,2233
2.4862499,662
2.4887499,0
2.4912499,644
2.4937499,2104
2.4962499,3066
2.4987499,2934
2.5012499,1732
2.5037499,233
2.5062499,0
2.5087498999999998,1147
2.5112499,2539
2.5137499,3156
2.5162499,2636
2.5187499,1187
2.5212499,0
2.5237499,244
2.5262499,1651
2.5287498999999998,2873
2.5312499,3114
2.5337499,2217
2.5362499,647
2.5387499,0
2.5412499,662
2.5437499,2122
2.5462499,3076
2.5487499,2927
2.5512499,1714
2.5537499,222
2.5562499,0
2.5587499,1168
2.5612499,2549
2.5637499,3155
2.5662499,2616
2.5687499,1161
2.5712498999999998,0
2.5737499,257
2.5762499,1664
2.5787499,2876
2.5812499,3105
2.5837499,2196
2.5862499,628
2.5887499,0
2.5912498999999998,681
2.5937499,2136
2.5962499,3074
2.5987499,2913
2.6012499,1691
2.6037499,209
2.6062499,0
2.6087499,1187
2.6112499,2565
2.6137499,3156
2.6162499,2602
2.6187499,1139
2.6212499,0
2.6237499,238
2.6262499,1617
2.6287499,2824
2.6312499,3058
2.6337498999999998,2154
2.6362499,601
2.6387499,-1
2.6412499,705
2.6437499,2167
2.6462499,3097
2.6487499,2914
2.6512499,1677
2.6537498999999998,194
2.6562499,0
2.6587499,1208
2.6612499,2579
2.6637499,3155
2.6662499,2587
2.6687499,1118
2.6712499,0
2.6737499,288
2.6762499,1706
2.6787499,2895
2.6812499,3090
2.6837499,2157
2.6862499,592
2.6887499,0
2.6912499,728
2.6937499,2188
2.6962498999999998,3106
2.6987499,2910
2.7012499,1658
2.7037499,182
2.7062499,1
2.7087499,1226
2.7112499,2595
2.7137499,3158
2.7162498999999998,2574
2.7187499,1095
2.7212499,0
2.7237499,298
2.7262499,1719
2.7287499,2906
2.7312499,3090
2.7337499,2146
2.7362499,576
2.7387499,0
2.7412499,744
2.7437499,2204
2.7462499,3111
2.7487499,2900
2.7512499,1638
2.7537499,170
2.7562499,6
2.7587498999999998,1243
2.7612499,2605
2.7637499,3153
2.7662499,2557
2.7687499,1073
2.7712499,0
2.7737499,310
2.7762499,1738
2.7787498999999998,2921
2.7812499,3087
2.7837499,2126
2.7862499,555
2.7887499,0
2.7912499,762
2.7937499,2215
2.7962499,3103
2.7987499,2879
2.8012499,1614
2.8037499,154
2.8062499,29
2.8087499,1268
2.8112499,2626
2.8137499,3158
2.8162499,2545
2.8187499,1053
2.8212498999999998,0
2.8237499,325
2.8262499,1753
2.8287499,2924
2.8312499,3077
2.8337499,2102
2.8362499,533
2.8387499,0
2.8412498999999998,778
2.8437499,2234
2.8462499,3111
2.8487499,2868
2.8512499,1588
2.8537499,140
2.8562499,40
2.8587499,1285
2.8612499,2639
2.8637499,3158
2.8662499,2531
2.8687499,1029
2.8712499,0
2.8737499,344
2.8762499,1780
2.8787499,2937
2.8812499,3074
2.8837498999999998,2088
2.8862499,520
2.8887499,0
2.8912499,802
2.8937499,2262
2.8962499,3172
2.8987499,2924
2.9012499,1630
2.9037498999999998,165
2.9062499,49
2.9087499,1300
2.9112499,2645
2.9137499,3150
2.9162499,2512
2.9187499,1013
2.9212499,0
2.9237499,362
2.9262499,1914
2.9287499,2998
2.9312499,3029
2.9337499,2065
2.9362499,494
2.9387499,0
2.9412499,812
2.9437499,2259
2.9462498999999998,3109
2.9487499,2840
2.9512499,1545
2.9537499,116
2.9562499,59
2.9587499,1327
2.9612499,2668
2.9637499,3155
2.9662498999999998,2494
2.9687499,981
2.9712499,-1
2.9737499,373
2.9762499,1814
2.9787499,2955
2.9812499,3059
2.9837499,2043
2.9862499,480
2.9887499,0
2.9912499,834
2.9937499,2283
2.9962499,3119
2.9987499,2834
3.0012499,1527
3.0037499,104
3.0062499,66
3.0087499,1343
3.0112499,2678
3.0137499,3151
3.0162499,2484
3.0187499,970
3.0212499,0
3.0237499,393
3.0262499,1835
3.0287498999999998,2963
3.0312499,3055
3.0337499,2031
3.0362499,470
3.0387499,0
3.0412499,855
3.0437499,2302
3.0462499,3126
3.0487499,2824
3.0512499,1504
3.0537499,91
3.0562499,74
3.0587499,1358
3.0612499,2689
3.0637499,3153
3.0662499,2473
3.0687499,953
3.0712499,0
3.0737499,407
3.0762499,1857
3.0787499,2977
3.0812499,3055
3.0837499,2012
3.0862499,447
3.0887499,0
3.0912498999999998,868
3.0937499,2315
3.0962499,3127
3.0987499,2816
3.1012499,1488
3.1037499,80
3.1062499,80
3.1087499,1376
3.1112499,2697
3.1137499,3146
3.1162499,2452
3.1187499,928
3.1212499,0
3.1237499,417
3.1262499,1865
3.1287499,2977
3.1312499,3043
3.1337499,1998
3.1362499,439
3.1387499,0
3.1412499,891
3.1437499,2330
3.1462499,3132
3.1487499,2805
3.1512499,1467
3.1537498999999998,69
3.1562499,88
3.1587499,1392
3.1612499,2713
3.1637499,3151
3.1662499,2391
3.1687499,837
3.1712499,0
3.1737499,418
3.1762499,1867
3.1787499,2974
3.1812499,3034
3.1837499,1981
3.1862499,427
3.1887499,0
3.1912499,907
3.1937499,2350
3.1962499,3140
3.1987499,2795
3.2012499,1445
3.2037499,54
3.2062499,96
3.2087499,1406
3.2112499,2721
3.2137499,3146
3.2162498999999998,2425
3.2187499,892
3.2212499,0
3.2237499,451
3.2262499,1902
3.2287499,2997
3.2312499,3040
3.2337499,1973
3.2362499,422
3.2387499,0
3.2412499,928
3.2437499,2365
3.2462499,3142
3.2487499,2784
3.2512499,1424
3.2537499,49
3.2562499,109
3.2587499,1432
3.2612499,2737
3.2637499,3145
3.2662499,2410
3.2687499,874
3.2712499,0
3.2737499,465
3.2762499,1920
3.2787498999999998,3005
3.2812499,3029
3.2837499,1949
3.2862499,398
3.2887499,0
3.2912499,942
3.2937499,2376
3.2962499,3140
3.2987499,2771
3.3012499,1406
3.3037499,41
3.3062499,119
3.3087499,1450
3.3112499,2750
3.3137499,3148
3.3162499,2402
3.3187499,858
3.3212499,0
3.3237499,485
3.3262499,1943
3.3287499,3014
3.3312499,3021
3.3337499,1925
3.3362499,378
3.3387499,0
3.3412498999999998,961
3.3437499,2391
3.3462499,3143
3.3487499,2763
3.3512499,1392
3.3537499,38
3.3562499,132
3.3587499,1479
3.3612499,2771
3.3637499,3150
3.3662499,2384
3.3687499,836
3.3712499,0
3.3737499,497
3.3762499,1959
3.3787499,3022
3.3812499,2971
3.3837499,1793
3.3862499,275
3.3887499,0
3.3912499,981
3.3937499,2413
3.3962499,3148
3.3987499,2752
3.4012499,1369
3.4037498999999998,24
3.4062499,138
3.4087499,1490
3.4112499,2776
3.4137499,3145
3.4162499,2373
3.4187499,825
3.4212499,0
3.4237499,518
3.4262499,1981
3.4287499,3034
3.4312499,3013
3.4337499,1888
3.4362499,368
3.4387499,0
3.4412499,1053
3.4437499,2479
3.4462499,3182
3.4487499,2761
3.4512499,1363
3.4537499,22
3.4562499,146
3.4587499,1498
3.4612499,2777
3.4637499,3135
3.4662498999999998,2349
3.4687499,796
3.4712499,0
3.4737499,525
3.4762499,1981
3.4787499,3021
3.4812499,2990
3.4837499,1865
3.4862499,328
3.4887499,0
3.4912499,1011
3.4937499,2433
3.4962499,3145
3.4987499,2723
3.5012499,1327
3.5037499,9
3.5062499,159
3.5087499,1519
3.5112499,2790
3.5137499,3135
3.5162499,2334
3.5187499,779
3.5212499,0
3.5237499,544
3.5262499,2004
3.5287498999999998,3032
3.5312499,2982
3.5337499,1846
3.5362499,317
3.5387499,0
3.5412499,1031
3.5437499,2449
3.5462499,3148
3.5487499,2707
3.5512499,1303
3.5537499,4
3.5562499,175
3.5587499,1546
3.5612499,2811
3.5637499,3137
3.5662499,2317
3.5687499,755
3.5712499,0
3.5737499,555
3.5762499,2019
3.5787499,3042
3.5812499,2982
3.5837499,1835
3.5862499,306
3.5887499,0
3.5912498999999998,1048
3.5937499,2462
3.5962499,3151
3.5987499,2699
3.6012499,1285
3.6037499,1
3.6062499,177
3.6087499,1554
3.6112499,2819
3.6137499,3137
3.6162499,2313
3.6187499,747
3.6212499,0
3.6237499,570
3.6262499,2028
3.6287499,3045
3.6312499,2976
3.6337499,1822
3.6362499,302
3.6387499,0
3.6412499,1074
3.6437499,2487
3.6462499,3161
3.6487499,2699
3.6512499,1276
3.6537498999999998,1
3.6562499,191
3.6587499,1572
3.6612499,2823
3.6637499,3124
3.6662499,2283
3.6687499,723
3.6712499,0
3.6737499,601
3.6762499,2065
3.6787499,3064
3.6812499,2971
3.6837499,1796
3.6862499,273
3.6887499,0
3.6912499,1087
3.6937499,2491
3.6962499,3153
3.6987499,2674
3.7012499,1245
3.7037499,0
3.7062499,203
3.7087499,1537
3.7112499,2769
3.7137499,3074
3.7162498999999998,2242
3.7187499,700
3.7212499,0
3.7237499,620
3.7262499,2086
3.7287499,3076
3.7312499,2968
3.7337499,1783
3.7362499,270
3.7387499,0
3.7412499,1110
3.7437499,2515
3.7462499,3164
3.7487499,2676
3.7512499,1243
3.7537499,0
3.7562499,222
3.7587499,1621
3.7612499,2861
3.7637499,3134
3.7662499,2270
3.7687499,699
3.7712499,0
3.7737499,633
3.7762499,2097
3.7787498999999998,3077
3.7812499,2955
3.7837499,1762
3.7862499,261
3.7887499,0
3.7912499,1135
3.7937499,2533
3.7962499,3163
3.7987499,2653
3.8012499,1218
3.8037499,0
3.8062499,235
3.8087499,1633
3.8112499,2863
3.8137499,3116
3.8162499,2234
3.8187499,667
3.8212499,0
3.8237499,647
3.8262499,2114
3.8287499,3084
3.8312499,2950
3.8337499,1746
3.8362499,162
3.8387499,19
3.8412498999999998,1260
3.8437499,2626
3.8462499,3167
3.8487499,2653
3.8512499,1206
3.8537499,0
3.8562499,243
3.8587499,1648
3.8612499,2876
3.8637499,3122
3.8662499,2231
3.8687499,663
3.8712499,0
3.8737499,668
3.8762499,2135
3.8787499,3093
3.8812499,2945
3.8837499,1732
3.8862499,240
3.8887499,0
3.8912499,1173
3.8937499,2565
3.8962499,3167
3.8987499,2628
3.9012499,1173
3.9037499,0
3.9062499,254
3.9087499,1662
3.9112499,2882
3.9137499,3116
3.9162499,2215
3.9187499,649
3.9212499,0
3.9237499,681
3.9262499,2144
3.9287499,3088
3.9312499,2931
3.9337499,1711
3.9362499,223
3.9387499,0
3.9412499,1182
3.9437499,2568
3.9462499,3163
3.9487499,2623
3.9512499,1160
3.9537499,0
3.9562499,264
3.9587499,1677
3.9612499,2885
3.9637499,3106
3.9662499,2188
3.9687499,615
3.9712499,0
3.9737499,689
3.9762499,2147
3.9787499,3126
3.9812499,2979
3.9837499,1749
3.9862499,248
3.9887499,0
3.9912499,1197
3.9937499,2576
3.9962499,3158
3.9987499,2594
4.0012499,1129
4.003749900000001,0
4.0062499,277
4.008749900000001,1693
4.0112499,2893
4.0137499000000005,3100
4.0162499,2175
4.0187499,609
4.021249900000001,0
4.0237499,713
4.026249900000001,2168
4.0287499,3088
4.031249900000001,2902
4.0337499,1661
4.0362499000000005,183
4.0387499,0
4.0412499,1206
4.043749900000001,2579
4.0462499,3153
4.048749900000001,2582
4.0512499,1110
4.053749900000001,0
4.0562499,291
4.0587499000000005,1712
4.061249900000001,2902
4.0637499,3093
4.066249900000001,2151
4.0687499,578
4.071249900000001,0
4.0737499,725
4.0762499000000005,2181
4.0787499,3098
4.0812499,2905
4.083749900000001,1653
4.0862499,180
4.088749900000001,1
4.0912499,1232
4.093749900000001,2607
4.0962499,3164
4.0987499000000005,2581
4.1012499,1098
4.1037499,0
4.106249900000001,304
4.1087499,1730
4.111249900000001,2914
4.1137499,3093
4.116249900000001,2144
4.1187499,570
4.1212499000000005,0
4.123749900000001,744
4.1262499,2202
4.128749900000001,3105
4.1312499,2893
4.133749900000001,1633
4.1362499,167
4.1387499000000005,12
4.1412499,1248
4.1437499,2616
4.146249900000001,3163
4.1487499,2562
4.151249900000001,1076
4.1537499,0
4.156249900000001,315
4.1587499,1743
4.1612499000000005,2922
4.1637499,3093
4.1662499,2133
4.168749900000001,560
4.1712499,0
4.173749900000001,766
4.1762499,2225
4.178749900000001,3117
4.1812499,2890
4.1837499000000005,1621
4.186249900000001,159
4.1887499,29
4.191249900000001,1272
4.1937499,2639
4.196249900000001,3171
4.1987499,2562
4.2012499000000005,1066
4.2037499,0
4.2062499,331
4.208749900000001,1769
4.2112499,2940
4.213749900000001,3093
4.2162499,2117
4.218749900000001,539
4.2212499,0
4.2237499000000005,771
4.2262499,2225
4.2287499,3109
4.231249900000001,2874
4.2337499,1601
4.236249900000001,153
4.2387499,45
4.241249900000001,1295
4.2437499,2652
4.2462499000000005,3167
4.248749900000001,2515
4.2512499,973
4.253749900000001,0
4.2562499,328
4.258749900000001,1764
4.2612499,2935
4.2637499000000005,3080
4.2662499,2101
4.2687499,531
4.271249900000001,0
4.2737499,802
4.276249900000001,2257
4.2787499,3126
4.281249900000001,2871
4.2837499,1583
4.2862499000000005,143
4.288749900000001,53
4.2912499,1430
4.293749900000001,2742
4.2962499,3159
4.298749900000001,2434
4.3012499,1024
4.303749900000001,0
4.3062499,362
4.3087499000000005,1804
4.311249900000001,2956
4.3137499,3077
4.316249900000001,2080
4.3187499,512
4.321249900000001,0
4.3237499,820
4.3262499000000005,2275
4.3287499,3129
4.3312499,2860
4.333749900000001,1563
4.3362499,125
4.338749900000001,59
4.3412499,1327
4.343749900000001,2678
4.3462499,3169
4.3487499000000005,2516
4.351249900000001,1000
4.3537499,0
4.356249900000001,375
4.3587499,1819
4.361249900000001,2958
4.3637499,3066
4.366249900000001,2056
4.3687499,493
4.3712499000000005,0
4.373749900000001,845
4.3762499,2296
4.378749900000001,3137
4.3812499,2852
4.383749900000001,1543
4.3862499,116
4.3887499000000005,67
4.3912499,1345
4.3937499,2684
4.396249900000001,3156
4.3987499,2487
4.401249900000001,971
4.4037499,0
4.406249900000001,385
4.4087499,1836
4.4112499000000005,2972
4.413749900000001,3069
4.4162499,2044
4.418749900000001,475
4.4212499,0
4.423749900000001,847
4.4262499,2297
4.428749900000001,3129
4.4312499,2837
4.4337499000000005,1527
4.436249900000001,114
4.4387499,77
4.441249900000001,1363
4.4437499,2697
4.446249900000001,3163
4.4487499,2484
4.4512499000000005,965
4.4537499,0
4.4562499,401
4.458749900000001,1848
4.4612499,2972
4.463749900000001,3061
4.4662499,2035
4.468749900000001,472
4.4712499,0
4.4737499000000005,855
4.476249900000001,2299
4.4787499,3126
4.481249900000001,2829
4.4837499,1516
4.486249900000001,112
4.4887499,85
4.491249900000001,1382
4.4937499,2710
4.4962499000000005,3163
4.498749900000001,2473
4.5012499,950
4.503749900000001,0
4.5062499,410
4.508749900000001,1857
4.5112499,2972
4.5137499000000005,3051
4.5162499,2014
4.5187499,460
4.521249900000001,0
4.5237499,949
4.526249900000001,2399
4.5287499,3180
4.531249900000001,2839
4.5337499,1493
4.5362499000000005,83
4.538749900000001,83
4.5412499,1384
4.543749900000001,2710
4.5462499,3158
4.548749900000001,2458
4.5512499,932
4.553749900000001,0
4.5562499,427
4.5587499000000005,1882
4.561249900000001,2989
4.5637499,3051
4.566249900000001,2006
4.5687499,454
4.571249900000001,0
4.5737499,907
4.5762499000000005,2350
4.5787499,3145
4.5812499,2813
4.583749900000001,1472
4.5862499,83
4.588749900000001,98
4.5912499,1405
4.593749900000001,2718
4.5962499,3153
4.5987499000000005,2446
4.601249900000001,924
4.6037499,0
4.606249900000001,444
4.6087499,1901
4.611249900000001,3000
4.6137499,3042
4.616249900000001,1980
4.6187499,427
4.6212499000000005,0
4.623749900000001,916
4.6262499,2354
4.628749900000001,3140
4.6312499,2797
4.633749900000001,1446
4.6362499,62
4.6387499000000005,103
4.6412499,1421
4.6437499,2734
4.646249900000001,3156
4.6487499,2431
4.651249900000001,897
4.6537499,0
4.656249900000001,459
4.6587499,1919
4.6612499000000005,3009
4.663749900000001,3043
4.6662499,1972
4.668749900000001,417
4.6712499,0
4.673749900000001,926
4.6762499,2362
4.678749900000001,3137
4.6812499,2787
4.6837499000000005,1440
4.686249900000001,67
4.6887499,114
4.691249900000001,1440
4.6937499,2748
4.696249900000001,3159
4.6987499,2429
4.7012499000000005,889
4.7037499,0
4.7062499,467
4.708749900000001,1923
4.7112499,3008
4.713749900000001,3037
4.7162499,1964
4.718749900000001,414
4.7212499,0
4.7237499000000005,952
4.726249900000001,2391
4.7287499,3155
4.731249900000001,2789
4.7337499,1426
4.736249900000001,54
4.7387499,120
4.741249900000001,1450
4.7437499,2750
4.7462499000000005,3150
4.748749900000001,2405
4.7512499,750
4.753749900000001,0
4.7562499,589
4.758749900000001,1943
4.7612499,3018
4.7637499000000005,3029
4.7662499,1938
4.7687499,388
4.771249900000001,0
4.7737499,963
4.776249900000001,2396
4.7787499,3153
4.781249900000001,2774
4.7837499,1405
4.7862499000000005,49
4.788749900000001,132
4.7912499,1427
4.793749900000001,2695
4.7962499,3097
4.798749900000001,2362
4.8012499,844
4.803749900000001,0
4.8062499,505
4.8087499000000005,1969
4.811249900000001,3032
4.8137499,3026
4.816249900000001,1925
4.8187499,380
4.821249900000001,0
4.8237499,984
4.8262499000000005,2415
4.8287499,3155
4.8312499,2765
4.833749900000001,1395
4.8362499,54
4.838749900000001,145
4.8412499,1492
4.843749900000001,2777
4.8462499,3146
4.8487499000000005,2376
4.851249900000001,828
4.8537499,0
4.856249900000001,515
4.8587499,1978
4.861249900000001,3029
4.8637499,3014
4.866249900000001,1906
4.8687499,367
4.8712499000000005,0
4.873749900000001,994
4.8762499,2423
4.878749900000001,3153
4.8812499,2752
4.883749900000001,1368
4.8862499,30
4.8887499000000005,148
4.8912499,1498
4.8937499,2781
4.896249900000001,3142
4.8987499,2363
4.901249900000001,820
4.9037499,0
4.906249900000001,525
4.9087499,1991
4.9112499000000005,3040
4.913749900000001,3016
4.9162499,1898
4.918749900000001,364
4.9212499,0
4.923749900000001,1015
4.9262499,2436
4.928749900000001,3156
4.9312499,2745
4.9337499000000005,1355
4.936249900000001,27
4.9387499,159
4.941249900000001,1517
4.9437499,2795
4.946249900000001,3142
4.9487499,2346
4.9512499000000005,796
4.9537499,0
4.9562499,536
4.958749900000001,1993
4.9612499,3032
4.963749900000001,2995
4.9662499,1870
4.968749900000001,339
4.9712499,0
4.9737499000000005,1026
4.976249900000001,2442
4.9787499,3151
4.981249900000001,2726
4.9837499,1330
4.986249900000001,17
4.9887499,169
4.991249900000001,1538
4.9937499,2811
4.9962499000000005,3148
4.998749900000001,2346
5.0012499,792
5.003749900000001,0
5.0062499,562
5.008749900000001,2030
5.0112499,3056
5.0137499000000005,3001
5.0162499,1859
5.0187499,333
5.021249900000001,0
5.0237499,1048
5.026249900000001,2465
5.0287499,3161
5.031249900000001,2723
5.0337499,1316
5.0362499000000005,12
5.038749900000001,175
5.0412499,1546
5.043749900000001,2811
5.0462499,3138
5.048749900000001,2330
5.0512499,778
5.053749900000001,0
5.0562499,576
5.0587499000000005,2043
5.061249900000001,3074
5.0637499,3051
5.066249900000001,1920
5.0687499,383
5.071249900000001,0
5.0737499,1074
5.0762499000000005,2487
5.0787499,3167
5.0812499,2715
5.083749900000001,1297
5.0862499,4
5.088749900000001,185
5.0912499,1561
5.093749900000001,2819
5.0962499,3137
5.0987499000000005,2312
5.101249900000001,758
5.1037499,0
5.106249900000001,584
5.1087499,2048
5.111249900000001,3053
5.1137499,2977
5.116249900000001,1819
5.1187499,299
5.1212499000000005,0
5.123749900000001,1079
5.1262499,2487
5.128749900000001,3159
5.1312499,2694
5.133749900000001,1272
5.1362499,1
5.1387499000000005,193
5.1412499,1574
5.1437499,2826
5.146249900000001,3130
5.1487499,2294
5.151249900000001,737
5.1537499,0
5.156249900000001,601
5.1587499,2067
5.1612499000000005,3066
5.163749900000001,2979
5.1662499,1812
5.168749900000001,294
5.1712499,0
5.173749900000001,1097
5.1762499,2502
5.178749900000001,3166
5.1812499,2694
5.1837499000000005,1271
5.186249900000001,4
5.1887499,214
5.191249900000001,1604
5.1937499,2848
5.196249900000001,3135
5.1987499,2283
5.2012499000000005,718
5.2037499,0
5.2062499,731
5.208749900000001,2189
5.2112499,3106
5.213749900000001,2911
5.2162499,1791
5.218749900000001,280
5.2212499,0
5.2237499000000005,1115
5.226249900000001,2516
5.2287499,3161
5.231249900000001,2666
5.2337499,1232
5.236249900000001,0
5.2387499,219
5.241249900000001,1611
5.2437499,2853
5.2462499000000005,3132
5.248749900000001,2275
5.2512499,713
5.253749900000001,0
5.2562499,636
5.258749900000001,2096
5.2612499,3072
5.2637499000000005,2958
5.2662499,1774
5.2687499,273
5.271249900000001,0
5.2737499,1134
5.276249900000001,2533
5.2787499,3169
5.281249900000001,2665
5.2837499,1223
5.2862499000000005,0
5.288749900000001,225
5.2912499,1619
5.293749900000001,2852
5.2962499,3117
5.298749900000001,2247
5.3012499,681
5.303749900000001,0
5.3062499,644
5.3087499000000005,2109
5.311249900000001,3080
5.3137499,2955
5.316249900000001,1757
5.3187499,252
5.321249900000001,0
5.3237499,1144
5.3262499000000005,2542
5.3287499,3171
5.3312499,2657
5.333749900000001,1153
5.3362499,0
5.338749900000001,217
5.3412499,1616
5.343749900000001,2853
5.3462499,3116
5.3487499000000005,2236
5.351249900000001,670
5.3537499,0
5.356249900000001,670
5.3587499,2139
5.361249900000001,3101
5.3637499,2956
5.366249900000001,1746
5.3687499,240
5.3712499000000005,0
5.373749900000001,1155
5.3762499,2549
5.378749900000001,3164
5.3812499,2636
5.383749900000001,1184
5.3862499,0
5.3887499000000005,254
5.3912499,1667
5.3937499,2890
5.396249900000001,3126
5.3987499,2068
5.401249900000001,652
5.4037499,0
5.406249900000001,675
5.4087499,2139
5.4112499000000005,3098
5.413749900000001,2945
5.4162499,1728
5.418749900000001,232
5.4212499,0
5.423749900000001,1182
5.4262499,2574
5.428749900000001,3171
5.4312499,2629
5.4337499000000005,1165
5.436249900000001,0
5.4387499,257
5.441249900000001,1670
5.4437499,2887
5.446249900000001,3116
5.4487499,2207
5.4512499000000005,636
5.4537499,0
5.4562499,694
5.458749900000001,2160
5.4612499,3103
5.463749900000001,2932
5.4662499,1704
5.468749900000001,219
5.4712499,0
5.4737499000000005,1203
5.476249900000001,2587
5.4787499,3167
5.481249900000001,2605
5.4837499,1134
5.486249900000001,0
5.4887499,272
5.491249900000001,1691
5.4937499,2903
5.4962499000000005,3117
5.498749900000001,2201
5.5012499,625
5.503749900000001,0
5.5062499,710
5.508749900000001,2176
5.5112499,3106
5.5137499000000005,2919
5.5162499,1679
5.5187499,191
5.521249900000001,0
5.5237499,1205
5.526249900000001,2587
5.5287499,3169
5.531249900000001,2605
5.5337499,1131
5.5362499000000005,0
5.538749900000001,290
5.5412499,1712
5.543749900000001,2914
5.5462499,3113
5.548749900000001,2178
5.5512499,602
5.553749900000001,0
5.5562499,720
5.5587499000000005,2184
5.561249900000001,3109
5.5637499,2918
5.566249900000001,1679
5.5687499,198
5.571249900000001,1
5.5737499,1229
5.5762499000000005,2607
5.5787499,3169
5.5812499,2591
5.583749900000001,1110
5.5862499,0
5.588749900000001,296
5.5912499,1720
5.593749900000001,2914
5.5962499,3105
5.5987499000000005,2162
5.601249900000001,591
5.6037499,0
5.606249900000001,796
5.6087499,2268
5.611249900000001,3161
5.6137499,2931
5.616249900000001,1664
5.6187499,180
5.6212499000000005,3
5.623749900000001,1235
5.6262499,2610
5.628749900000001,3164
5.6312499,2576
5.633749900000001,1089
5.6362499,0
5.6387499000000005,302
5.6412499,1730
5.6437499,2919
5.646249900000001,3100
5.6487499,2149
5.651249900000001,575
5.6537499,0
5.656249900000001,754
5.6587499,2321
5.6612499000000005,3145
5.663749900000001,2837
5.6662499,1509
5.668749900000001,172
5.6712499,17
5.673749900000001,1258
5.6762499,2624
5.678749900000001,3167
5.6812499,2563
5.6837499000000005,1069
5.686249900000001,0
5.6887499,317
5.691249900000001,1749
5.6937499,2929
5.696249900000001,3092
5.6987499,2125
5.7012499000000005,554
5.7037499,0
5.7062499,770
5.708749900000001,2230
5.7112499,3121
5.713749900000001,2893
5.7162499,1621
5.718749900000001,159
5.7212499,33
5.7237499000000005,1276
5.726249900000001,2639
5.7287499,3169
5.731249900000001,2557
5.7337499,1065
5.736249900000001,0
5.7387499,338
5.741249900000001,1775
5.7437499,2948
5.7462499000000005,3100
5.748749900000001,2123
5.7512499,547
5.753749900000001,0
5.7562499,781
5.758749900000001,2244
5.7612499,3129
5.7637499000000005,2892
5.7662499,1616
5.7687499,159
5.771249900000001,45
5.7737499,1297
5.776249900000001,2655
5.7787499,3172
5.781249900000001,2550
5.7837499,1050
5.7862499000000005,0
5.788749900000001,346
5.7912499,1786
5.793749900000001,2953
5.7962499,3097
5.798749900000001,2110
5.8012499,539
5.803749900000001,0
5.8062499,796
5.8087499000000005,2254
5.811249900000001,3126
5.8137499,2873
5.816249900000001,1588
5.8187499,141
5.821249900000001,46
5.8237499,1297
5.8262499000000005,2652
5.8287499,3164
5.8312499,2529
5.833749900000001,1026
5.8362499,0
5.838749900000001,360
5.8412499,1803
5.843749900000001,2961
5.8462499,3090
5.8487499000000005,2094
5.851249900000001,522
5.8537499,0
5.856249900000001,812
5.8587499,2268
5.861249900000001,3129
5.8637499,2866
5.866249900000001,1575
5.8687499,130
5.8712499000000005,53
5.873749900000001,1297
5.8762499,2602
5.878749900000001,3108
5.8812499,2478
5.883749900000001,990
5.8862499,0
5.8887499000000005,375
5.8912499,1822
5.8937499,2971
5.896249900000001,3079
5.8987499,2067
5.901249900000001,501
5.9037499,0
5.906249900000001,836
5.9087499,2296
5.9112499000000005,3143
5.913749900000001,2861
5.9162499,1554
5.918749900000001,120
5.9212499,64
5.923749900000001,1343
5.9262499,2690
5.928749900000001,3172
5.9312499,2512
5.9337499000000005,997
5.936249900000001,0
5.9387499,386
5.941249900000001,1835
5.9437499,2976
5.946249900000001,3080
5.9487499,2065
5.9512499000000005,497
5.9537499,0
5.9562499,845
5.958749900000001,2302
5.9612499,3140
5.963749900000001,2847
5.9662499,1537
5.968749900000001,109
5.9712499,70
5.9737499000000005,1355
5.976249900000001,2694
5.9787499,3166
5.981249900000001,2495
5.9837499,976
5.986249900000001,0
5.9887499,398
5.991249900000001,1849
5.9937499,2985
5.9962499000000005,3077
5.998749900000001,2051
6.0012499,481
6.003749900000001,0
6.0062499,857
6.008749900000001,2307
6.0112499,3134
6.0137499000000005,2835
6.016249900000001,1519
6.0187499,101
6.021249900000001,78
6.0237499,1372
6.026249900000001,2711
6.0287499,3171
6.031249900000001,2491
6.0337499,963
6.0362499000000005,0
6.038749900000001,410
6.0412499,1862
6.043749900000001,2987
6.0462499,3066
6.048749900000001,2030
6.0512499,468
6.053749900000001,0
6.0562499,887
6.0587499000000005,2339
6.061249900000001,3148
6.0637499,2832
6.066249900000001,1501
6.0687499,90
6.071249900000001,83
6.0737499,1387
6.0762499000000005,2718
6.078749900000001,3167
6.0812499,2475
6.083749900000001,945
6.0862499,0
6.088749900000001,427
6.0912499,1883
6.093749900000001,3001
6.0962499,3066
6.0987499000000005,2019
6.101249900000001,454
6.1037499,0
6.106249900000001,891
6.1087499,2344
6.111249900000001,3151
6.1137499,2824
6.116249900000001,1358
6.1187499,27
6.1212499000000005,157
6.123749900000001,1519
6.1262499,2728
6.128749900000001,3164
6.1312499,2462
6.133749900000001,928
6.1362499,0
6.1387499000000005,430
6.141249900000001,1883
6.1437499,2992
6.146249900000001,3095
6.1487499,2065
6.151249900000001,496
6.1537499,0
6.156249900000001,915
6.1587499,2354
6.1612499000000005,3143
6.163749900000001,2808
6.1662499,1469
6.168749900000001,74
6.1712499,96
6.173749900000001,1408
6.1762499,2724
6.178749900000001,3153
6.1812499,2437
6.1837499000000005,905
6.186249900000001,0
6.1887499,444
6.191249900000001,1899
6.1937499,2993
6.196249900000001,3042
6.1987499,1985
6.2012499000000005,430
6.203749900000001,0
6.2062499,926
6.208749900000001,2370
6.2112499,3155
6.213749900000001,2810
6.2162499,1466
6.218749900000001,77
6.2212499,104
6.2237499000000005,1422
6.226249900000001,2731
6.2287499,3155
6.231249900000001,2436
6.2337499,905
6.236249900000001,0
6.2387499,462
6.241249900000001,1917
6.2437499,2997
6.2462499000000005,3030
6.248749900000001,1969
6.2512499,422
6.253749900000001,0
6.2562499,936
6.258749900000001,2370
6.2612499,3142
6.2637499000000005,2792
6.266249900000001,1446
6.2687499,72
6.271249900000001,116
6.2737499,1437
6.276249900000001,2729
6.2787499,3135
6.281249900000001,2413
6.2837499,889
6.2862499000000005,0
6.288749900000001,476
6.2912499,1923
6.293749900000001,2992
6.2962499,3019
6.298749900000001,1956
6.3012499,418
6.303749900000001,0
6.3062499,955
6.3087499000000005,2375
6.311249900000001,3126
6.3137499,2769
6.316249900000001,1434
6.3187499,77
6.321249900000001,128
6.3237499,1451
6.3262499000000005,2721
6.328749900000001,3111
6.3312499,2386
6.333749900000001,873
6.3362499,0
6.338749900000001,485
6.3412499,1915
6.343749900000001,2955
6.3462499,2972
6.3487499000000005,1923
6.351249900000001,407
6.3537499,0
6.356249900000001,958
6.3587499,2344
6.361249900000001,3069
6.3637499,2711
6.366249900000001,1392
6.3687499,64
6.3712499000000005,132
6.373749900000001,1438
6.3762499,2673
6.378749900000001,3040
6.3812499,2323
6.383749900000001,834
6.3862499,0
6.3887499000000005,491
6.391249900000001,1896
6.3937499,2900
6.396249900000001,2908
6.3987499,1877
6.401249900000001,394
6.4037499,0
6.406249900000001,968
6.4087499,2326
6.4112499000000005,3024
6.413749900000001,2668
6.4162499,1335
6.418749900000001,14
6.4212499,128
6.423749900000001,1429
6.4262499,2647
6.428749900000001,3013
6.4312499,2320
6.4337499000000005,862
6.436249900000001,0
6.4387499,533
6.441249900000001,1936
6.4437499,2919
6.446249900000001,2916
6.4487499,1891
6.4512499000000005,422
6.453749900000001,0
6.4562499,1015
6.458749900000001,2368
6.4612499,3048
6.463749900000001,2687
6.4662499,1401
6.468749900000001,122
6.4712499,183
6.4737499000000005,1509
6.476249900000001,2710
6.4787499,3051
6.481249900000001,2350
6.4837499,894
6.486249900000001,0
6.4887499,568
6.491249900000001,1975
6.4937499,2943
6.4962499000000005,2929
6.498749900000001,1912
6.5012499,452
6.503749900000001,0
6.5062499,1039
6.508749900000001,2378
6.5112499,3047
6.5137499000000005,2686
6.516249900000001,1409
6.5187499,149
6.521249900000001,214
6.5237499,1546
6.526249900000001,2731
6.5287499,3056
6.531249900000001,2349
6.5337499,900
6.5362499000000005,0
6.538749900000001,597
6.5412499,1999
6.543749900000001,2956
6.5462499,2934
6.548749900000001,1914
6.5512499,470
6.553749900000001,4
6.5562499,1084
6.5587499000000005,2420
6.561249900000001,3071
6.5637499,2699
6.566249900000001,1419
6.5687499,162
6.571249900000001,235
6.5737499,1683
6.5762499000000005,2815
6.578749900000001,3047
6.5812499,2257
6.583749900000001,905
6.5862499,8
6.588749900000001,626
6.5912499,2025
6.593749900000001,2968
6.5962499,2935
6.5987499000000005,1915
6.601249900000001,481
6.6037499,38
6.606249900000001,1111
6.6087499,2431
6.611249900000001,3069
6.6137499,2694
6.616249900000001,1421
6.6187499,185
6.6212499000000005,275
6.623749900000001,1614
6.6262499,2771
6.628749900000001,3071
6.6312499,2362
6.633749900000001,923
6.6362499,45
6.6387499000000005,679
6.641249900000001,2065
6.6437499,2989
6.646249900000001,2943
6.6487499,1919
6.651249900000001,489
6.6537499,66
6.656249900000001,1148
6.6587499,2462
6.6612499000000005,3085
6.663749900000001,2697
6.6662499,1414
6.668749900000001,190
6.6712499,301
6.673749900000001,1640
6.6762499,2789
6.678749900000001,3072
6.6812499,2339
6.6837499000000005,889
6.686249900000001,32
6.6887499,739
6.691249900000001,2135
6.6937499,3029
6.696249900000001,2943
6.6987499,1891
6.7012499000000005,454
6.703749900000001,40
6.7062499,1137
6.708749900000001,2454
6.7112499,3072
6.713749900000001,2673
6.7162499,1379
6.718749900000001,159
6.7212499,280
6.7237499000000005,1621
6.726249900000001,2766
6.7287499,3045
6.731249900000001,2304
6.7337499,855
6.736249900000001,4
6.7387499,670
6.741249900000001,2059
6.7437499,2971
6.7462499000000005,2903
6.748749900000001,1854
6.7512499,430
6.753749900000001,38
6.7562499,1148
6.758749900000001,2458
6.7612499,3063
6.7637499000000005,2647
6.766249900000001,1340
6.7687499,127
6.771249900000001,272
6.7737499,1625
6.776249900000001,2777
6.7787499,3047
6.781249900000001,2291
6.7837499,828
6.7862499000000005,0
6.788749900000001,675
6.7912499,2073
6.793749900000001,2979
6.7962499,2895
6.798749900000001,1820
6.8012499,394
6.803749900000001,30
6.8062499,1158
6.8087499000000005,2476
6.811249900000001,3077
6.8137499,2640
6.816249900000001,1316
6.8187499,104
6.821249900000001,272
6.8237499,1632
6.8262499000000005,2786
6.828749900000001,3047
6.8312499,2271
6.833749900000001,799
6.8362499,0
6.838749900000001,678
6.8412499,2081
6.843749900000001,2992
6.8462499,2897
6.8487499000000005,1811
6.851249900000001,380
6.8537499,30
6.856249900000001,1168
6.8587499,2484
6.861249900000001,3079
6.8637499,2631
6.866249900000001,1295
6.8687499,93
6.8712499000000005,278
6.873749900000001,1643
6.8762499,2794
6.878749900000001,3040
6.8812499,2247
6.883749900000001,770
6.8862499,0
6.8887499000000005,692
6.891249900000001,2101
6.8937499,3006
6.896249900000001,2903
6.8987499,1803
6.901249900000001,370
6.9037499,30
6.906249900000001,1173
6.9087499,2492
6.9112499000000005,3079
6.913749900000001,2615
6.9162499,1268
6.918749900000001,70
6.9212499,285
6.923749900000001,1656
6.9262499,2810
6.928749900000001,3050
6.9312499,2242
6.9337499000000005,757
6.936249900000001,0
6.9387499,699
6.941249900000001,2106
6.9437499,3006
6.946249900000001,2889
6.9487499,1774
6.9512499000000005,344
6.953749900000001,29
6.9562499,1185
6.958749900000001,2452
6.9612499,3021
6.963749900000001,2558
6.9662499,1219
6.968749900000001,48
6.9712499,294
6.9737499000000005,1675
6.976249900000001,2829
6.9787499,3061
6.981249900000001,2241
6.9837499,749
6.986249900000001,0
6.9887499,713
6.991249900000001,2125
6.9937499,3021
6.9962499000000005,2889
6.998749900000001,1754
7.0012499,323
7.003749900000001,37
7.0062499,1208
7.008749900000001,2536
7.0112499,3116
7.0137499000000005,2623
7.016249900000001,1240
7.0187499,45
7.021249900000001,296
7.0237499,1682
7.026249900000001,2839
7.0287499,3066
7.031249900000001,2123
7.0337499,620
7.0362499000000005,0
7.038749900000001,842
7.0412499,2147
7.043749900000001,3040
7.0462499,2892
7.048749900000001,1740
7.0512499,306
7.053749900000001,32
7.0562499,1208
7.0587499000000005,2537
7.061249900000001,3108
7.0637499,2603
7.066249900000001,1213
7.0687499,24
7.071249900000001,299
7.0737499,1690
7.0762499000000005,2842
7.078749900000001,3055
7.0812499,2202
7.083749900000001,694
7.0862499,0
7.088749900000001,728
7.0912499,2143
7.093749900000001,3034
7.0962499,2884
7.0987499000000005,1722
7.101249900000001,285
7.1037499,35
7.106249900000001,1226
7.1087499,2557
7.111249900000001,3119
7.1137499,2600
7.116249900000001,1198
7.1187499,22
7.1212499000000005,314
7.123749900000001,1709
7.1262499,2856
7.128749900000001,3055
7.1312499,2186
7.133749900000001,671
7.1362499,0
7.1387499000000005,741
7.141249900000001,2162
7.1437499,3047
7.146249900000001,2879
7.1487499,1703
7.151249900000001,269
7.1537499,37
7.156249900000001,1234
7.1587499,2565
7.1612499000000005,3122
7.163749900000001,2587
7.1662499,1177
7.168749900000001,8
7.1712499,317
7.173749900000001,1719
7.1762499,2869
7.178749900000001,3061
7.1812499,2175
7.1837499000000005,654
7.186249900000001,0
7.1887499,750
7.191249900000001,2176
7.1937499,3061
7.196249900000001,2882
7.1987499,1688
7.2012499000000005,249
7.203749900000001,35
7.2062499,1239
7.208749900000001,2570
7.2112499,3121
7.213749900000001,2576
7.2162499,1153
7.218749900000001,1
7.2212499,320
7.2237499000000005,1727
7.226249900000001,2876
7.2287499,3092
7.231249900000001,2236
7.2337499,710
7.236249900000001,0
7.2387499,775
7.241249900000001,2194
7.2437499,3064
7.2462499000000005,2871
7.248749900000001,1666
7.2512499,227
7.253749900000001,40
7.2562499,1258
7.258749900000001,2594
7.2612499,3135
7.2637499000000005,2573
7.266249900000001,1139
7.2687499,0
7.271249900000001,330
7.2737499,1738
7.276249900000001,2884
7.2787499,3058
7.281249900000001,2149
7.2837499,615
7.2862499000000005,0
7.288749900000001,768
7.2912499,2189
7.293749900000001,3061
7.2962499,2864
7.298749900000001,1651
7.3012499,217
7.303749900000001,43
7.3062499,1264
7.3087499000000005,2595
7.311249900000001,3129
7.3137499,2553
7.316249900000001,1106
7.3187499,0
7.321249900000001,330
7.3237499,1740
7.3262499000000005,2885
7.328749900000001,3058
7.3312499,2139
7.333749900000001,605
7.3362499,0
7.338749900000001,787
7.3412499,2223
7.343749900000001,3088
7.3462499,2879
7.3487499000000005,1654
7.351249900000001,219
7.3537499,49
7.356249900000001,1277
7.3587499,2608
7.361249900000001,3135
7.3637499,2553
7.366249900000001,1103
7.3687499,0
7.3712499000000005,348
7.373749900000001,1770
7.3762499,2914
7.378749900000001,3069
7.3812499,2135
7.383749900000001,597
7.3862499,0
7.3887499000000005,800
7.391249900000001,2236
7.3937499,3097
7.396249900000001,2871
7.3987499,1633
7.401249900000001,199
7.4037499,53
7.406249900000001,1293
7.4087499,2623
7.4112499000000005,3137
7.413749900000001,2539
7.4162499,1079
7.418749900000001,0
7.4212499,354
7.423749900000001,1777
7.4262499,2913
7.428749900000001,3059
7.4312499,2115
7.4337499000000005,575
7.436249900000001,0
7.4387499,797
7.441249900000001,2231
7.4437499,3090
7.446249900000001,2860
7.4487499,1617
7.4512499000000005,188
7.453749900000001,58
7.4562499,1300
7.458749900000001,2626
7.4612499,3134
7.463749900000001,2528
7.4662499,1066
7.468749900000001,0
7.4712499,365
7.4737499000000005,1793
7.476249900000001,2926
7.4787499,3061
7.481249900000001,2102
7.4837499,562
7.486249900000001,0
7.4887499,813
7.491249900000001,2346
7.4937499,3111
7.4962499000000005,2779
7.498749900000001,1443
7.5012499,103
7.503749900000001,33
7.5062499,1271
7.508749900000001,2600
7.5112499,3114
7.5137499000000005,2510
7.516249900000001,1048
7.5187499,0
7.521249900000001,378
7.5237499,1809
7.526249900000001,2940
7.5287499,3066
7.531249900000001,2102
7.5337499,559
7.5362499000000005,0
7.538749900000001,837
7.5412499,2271
7.543749900000001,3109
7.5462499,2853
7.548749900000001,1588
7.5512499,165
7.553749900000001,66
7.5562499,1321
7.5587499000000005,2644
7.561249900000001,3134
7.5637499,2505
7.566249900000001,1032
7.5687499,0
7.571249900000001,388
7.5737499,1824
7.5762499000000005,2945
7.578749900000001,3058
7.5812499,2078
7.583749900000001,531
7.5862499,0
7.588749900000001,839
7.5912499,2270
7.593749900000001,3103
7.5962499,2839
7.5987499000000005,1566
7.601249900000001,154
7.6037499,72
7.606249900000001,1342
7.6087499,2666
7.611249900000001,3148
7.6137499,2508
7.616249900000001,1024
7.6187499,0
7.6212499000000005,404
7.623749900000001,1843
7.6262499,2956
7.628749900000001,3058
7.6312499,2067
7.633749900000001,518
7.6362499,0
7.6387499000000005,852
7.641249900000001,2286
7.6437499,3114
7.646249900000001,2845
7.6487499,1569
7.651249900000001,161
7.6537499,83
7.656249900000001,1368
7.6587499,2687
7.6612499000000005,3151
7.663749900000001,2500
7.6662499,1010
7.668749900000001,0
7.6712499,404
7.673749900000001,1841
7.6762499,2958
7.678749900000001,3061
7.6812499,2064
7.6837499000000005,515
7.686249900000001,0
7.6887499,870
7.691249900000001,2300
7.6937499,3117
7.696249900000001,2832
7.6987499,1545
7.7012499000000005,145
7.703749900000001,88
7.7062499,1377
7.708749900000001,2694
7.7112499,3153
7.713749900000001,2487
7.7162499,992
7.718749900000001,0
7.7212499,420
7.7237499000000005,1861
7.726249900000001,2960
7.7287499,3038
7.731249900000001,2030
7.7337499,489
7.736249900000001,0
7.7387499,887
7.741249900000001,2323
7.743749900000001,3132
7.7462499000000005,2834
7.748749900000001,1533
7.7512499,128
7.753749900000001,88
7.7562499,1379
7.758749900000001,2695
7.7612499,3150
7.7637499000000005,2483
7.766249900000001,981
7.7687499,0
7.771249900000001,470
7.7737499,1941
7.776249900000001,3032
7.7787499,3077
7.781249900000001,2041
7.7837499,483
7.7862499000000005,-1
7.788749900000001,886
7.7912499,2318
7.793749900000001,3122
7.7962499,2816
7.798749900000001,1516
7.8012499,130
7.803749900000001,101
7.806249900000001,1405
7.8087499000000005,2713
7.811249900000001,3148
7.8137499,2463
7.816249900000001,961
7.8187499,0
7.821249900000001,443
7.8237499,1890
7.8262499000000005,2979
7.828749900000001,3038
7.8312499,2015
7.833749900000001,476
7.8362499,0
7.838749900000001,908
7.8412499,2333
7.843749900000001,3117
7.8462499,2802
7.8487499000000005,1490
7.851249900000001,109
7.8537499,103
7.856249900000001,1405
7.8587499,2707
7.861249900000001,3142
7.8637499,2449
7.866249900000001,937
7.868749900000001,-1
7.8712499000000005,444
7.873749900000001,1891
7.8762499,2977
7.878749900000001,3034
7.8812499,1999
7.883749900000001,457
7.8862499,0
7.8887499000000005,923
7.891249900000001,2350
7.8937499,3129
7.896249900000001,2797
7.8987499,1474
7.901249900000001,93
7.9037499,104
7.906249900000001,1411
7.9087499,2708
7.9112499000000005,3134
7.913749900000001,2436
7.9162499,931
7.918749900000001,0
7.9212499,467
7.923749900000001,1915
7.9262499,2992
7.928749900000001,3032
7.931249900000001,1981
7.9337499000000005,436
7.936249900000001,0
7.9387499,926
7.941249900000001,2350
7.9437499,3127
7.946249900000001,2790
7.9487499,1464
7.9512499000000005,32
7.953749900000001,183
7.9562499,1551
7.958749900000001,2797
7.9612499,3137
7.963749900000001,2426
7.9662499,915
7.968749900000001,0
7.9712499,470
7.9737499000000005,1917
7.976249900000001,2987
7.9787499,3019
7.981249900000001,1967
7.9837499,431
7.986249900000001,0
7.9887499,941
7.991249900000001,2359
7.993749900000001,3121
7.9962499000000005,2774
7.998749900000001,1445
8.0012499,83
8.003749899999999,124
8.0062499,1446
8.0087499,2729
8.0112499,3129
8.013749899999999,2407
8.0162499,892
8.0187499,0
8.021249899999999,481
8.0237499,1932
8.0262499,2990
8.0287499,3014
8.031249899999999,1957
8.0337499,428
8.0362499,0
8.0387499,960
8.0412499,2341
8.0437499,3056
8.0462499,2705
8.048749899999999,1392
8.0512499,69
8.0537499,140
8.0562499,1479
8.0587499,2760
8.0612499,3145
8.0637499,2417
8.066249899999999,897
8.0687499,0
8.0712499,493
8.0737499,1938
8.076249899999999,2989
8.0787499,3005
8.0812499,1948
8.083749899999999,425
8.0862499,0
8.0887499,982
8.0912499,2392
8.093749899999999,3127
8.0962499,2760
8.0987499,1422
8.1012499,83
8.1037499,145
8.1062499,1480
8.1087499,2753
8.111249899999999,3134
8.1137499,2399
8.1162499,883
8.1187499,0
8.1212499,514
8.1237499,1961
8.1262499,3000
8.128749899999999,3003
8.1312499,1935
8.1337499,414
8.1362499,0
8.138749899999999,999
8.1412499,2405
8.1437499,3134
8.146249899999999,2755
8.1487499,1411
8.1512499,80
8.1537499,151
8.156249899999999,1490
8.1587499,2757
8.1612499,3126
8.1637499,2386
8.1662499,871
8.1687499,0
8.1712499,525
8.173749899999999,1964
8.1762499,2992
8.1787499,2989
8.1812499,1915
8.1837499,407
8.1862499,0
8.1887499,1010
8.191249899999999,2407
8.1937499,3122
8.1962499,2739
8.1987499,1395
8.201249899999999,77
8.2037499,164
8.2062499,1511
8.208749899999999,2768
8.2112499,3122
8.2137499,2370
8.2162499,854
8.218749899999999,0
8.2212499,536
8.2237499,1980
8.2262499,3000
8.2287499,2984
8.2312499,1907
8.2337499,401
8.236249899999999,0
8.2387499,1018
8.2412499,2410
8.2437499,3116
8.2462499,2729
8.2487499,1384
8.2512499,78
8.253749899999999,177
8.2562499,1530
8.2587499,2776
8.2612499,3126
8.263749899999999,2371
8.2662499,858
8.2687499,0
8.271249899999999,554
8.2737499,1991
8.2762499,3001
8.2787499,2974
8.281249899999999,1894
8.2837499,394
8.2862499,0
8.2887499,1040
8.2912499,2433
8.2937499,3126
8.2962499,2724
8.298749899999999,1376
8.3012499,77
8.3037499,186
8.3062499,1538
8.3087499,2777
8.3112499,3126
8.3137499,2417
8.316249899999999,920
8.3187499,0
8.3212499,584
8.3237499,2020
8.326249899999999,3016
8.3287499,2974
8.3312499,1885
8.333749899999999,388
8.3362499,0
8.3387499,1048
8.3412499,2429
8.343749899999999,3113
8.3462499,2705
8.3487499,1351
8.3512499,64
8.3537499,190
8.3562499,1546
8.3587499,2777
8.361249899999999,3103
8.3637499,2331
8.3662499,820
8.3687499,0
8.3712499,1226
8.3737499,2252
8.3762499,3069
8.378749899999999,2850
8.3812499,1745
8.3837499,290
8.3862499,1
8.388749899999999,1185
8.3912499,2531
8.3937499,3117
8.396249899999999,2613
8.3987499,1213
8.4012499,12
8.4037499,283
8.406249899999999,1675
8.4087499,2847
8.4112499,3074
8.4137499,2210
8.4162499,797
8.4187499,0
8.4212499,601
8.423749899999999,2051
8.4262499,3043
8.4287499,2990
8.4312499,1890
8.4337499,399
8.4362499,0
8.4387499,1126
8.441249899999999,2526
8.4437499,3192
8.4462499,2787
8.4487499,1435
8.451249899999999,167
8.4537499,298
8.4562499,1714
8.458749899999999,2958
8.4612499,3196
8.4637499,2444
8.4662499,928
8.468749899999999,14
8.4712499,679
8.4737499,2139
8.4762499,3113
8.4787499,3022
8.4812499,1902
8.4837499,409
8.486249899999999,1
8.4887499,1148
8.4912499,2539
8.4937499,3184
8.4962499,2757
8.4987499,1388
8.5012499,124
8.503749899999999,269
8.5062499,1685
8.5087499,2929
8.5112499,3192
8.513749899999999,2439
8.5162499,939
8.5187499,62
8.521249899999999,768
8.5237499,2234
8.5262499,3188
8.5287499,3076
8.531249899999999,1988
8.5337499,510
8.5362499,103
8.5387499,1248
8.5412499,2631
8.5437499,3209
8.5462499,2781
8.548749899999999,1405
8.5512499,136
8.5537499,272
8.5562499,1670
8.5587499,2887
8.5612499,3155
8.5637499,2336
8.566249899999999,796
8.5687499,0
8.5712499,639
8.5737499,2089
8.5762499,3055
8.5787499,2958
8.5812499,1811
8.583749899999999,262
8.5862499,0
8.5887499,1071
8.5912499,2449
8.593749899999999,3101
8.5962499,2640
8.5987499,1248
8.6012499,6
8.6037499,230
8.6062499,1614
8.6087499,2829
8.611249899999999,3098
8.6137499,2255
8.6162499,707
8.6187499,0
8.6212499,621
8.6237499,2060
8.6262499,3016
8.628749899999999,2906
8.6312499,1740
8.6337499,241
8.6362499,0
8.6387499,1086
8.6412499,2449
8.6437499,3074
8.646249899999999,2584
8.6487499,1169
8.6512499,0
8.6537499,199
8.656249899999999,1559
8.6587499,2757
8.6612499,3021
8.6637499,2172
8.6662499,621
8.6687499,0
8.6712499,594
8.673749899999999,2015
8.6762499,2963
8.6787499,2847
8.6812499,1679
8.6837499,193
8.6862499,0
8.6887499,1100
8.691249899999999,2465
8.6937499,3080
8.6962499,2573
8.6987499,1145
8.7012499,0
8.7037499,214
8.7062499,1587
8.708749899999999,2790
8.7112499,3047
8.7137499,2180
8.7162499,625
8.718749899999999,0
8.7212499,621
8.7237499,2059
8.7262499,3005
8.7287499,2868
8.7312499,1672
8.7337499,164
8.736249899999999,0
8.7387499,1063
8.7412499,2404
8.7437499,2995
8.7462499,2466
8.7487499,1023
8.7512499,0
8.753749899999999,177
8.7562499,1513
8.7587499,2707
8.7612499,2977
8.7637499,2135
8.7662499,615
8.7687499,0
8.771249899999999,668
8.7737499,2125
8.7762499,3080
8.7787499,2943
8.781249899999999,1743
8.7837499,248
8.7862499,0
8.7887499,1190
8.7912499,2597
8.7937499,3198
8.7962499,2695
8.798749899999999,1255
8.8012499,17
8.8037499,286
8.8062499,1724
8.8087499,2950
8.8112499,3163
8.8137499,2265
8.816249899999999,676
8.8187499,0
8.8212499,617
8.8237499,2012
8.8262499,2935
8.8287499,2800
8.8312499,1630
8.833749899999999,183
8.8362499,0
8.8387499,1161
8.8412499,2524
8.843749899999999,3117
8.8462499,2582
8.8487499,1147
8.8512499,0
8.8537499,309
8.8562499,1775
8.8587499,2993
8.861249899999999,3172
8.8637499,2178
8.8662499,618
8.8687499,0
8.8712499,886
8.8737499,2271
8.8762499,3201
8.878749899999999,3029
8.8812499,1836
8.8837499,360
8.8862499,62
8.8887499,1311
8.8912499,2729
8.8937499,3216
8.896249899999999,2740
8.8987499,1298
8.9012499,72
8.9037499,336
8.906249899999999,1798
8.9087499,3019
8.9112499,3177
8.9137499,2281
8.9162499,710
8.9187499,0
8.9212499,739
8.923749899999999,2213
8.9262499,3142
8.9287499,2950
8.9312499,1708
8.9337499,209
8.9362499,0
8.9387499,1192
8.941249899999999,2568
8.9437499,3148
8.9462499,2584
8.9487499,1108
8.9512499,0
8.9537499,262
8.9562499,1669
8.958749899999999,2869
8.9612499,3077
8.9637499,2151
8.9662499,578
8.968749899999999,0
8.9712499,697
8.9737499,2149
8.9762499,3076
8.9787499,2895
8.9812499,1661
8.9837499,177
8.986249899999999,0
8.9887499,1208
8.9912499,2587
8.9937499,3164
8.9962499,2599
8.9987499,1126
9.0012499,0
9.003749899999999,291
9.0062499,1719
9.0087499,2921
9.0112499,3126
9.0137499,2201
9.0162499,630
9.0187499,0
9.021249899999999,750
9.0237499,2230
9.0262499,3155
9.0287499,2961
9.031249899999999,1724
9.0337499,243
9.0362499,27
9.0387499,1263
9.0412499,2649
9.0437499,3193
9.0462499,2615
9.048749899999999,1126
9.0512499,0
9.0537499,290
9.0562499,1711
9.0587499,2895
9.0612499,3074
9.0637499,2118
9.066249899999999,528
9.0687499,0
9.0712499,688
9.0737499,2125
9.0762499,3032
9.0787499,2831
9.0812499,1582
9.083749899999999,106
9.0862499,0
9.0887499,1184
9.0912499,2541
9.093749899999999,3101
9.0962499,2520
9.0987499,1042
9.1012499,0
9.1037499,286
9.1062499,1704
9.1087499,2892
9.111249899999999,3076
9.1137499,2125
9.1162499,549
9.1187499,0
9.1212499,731
9.1237499,2181
9.1262499,3042
9.128749899999999,2829
9.1312499,1587
9.1337499,136
9.1362499,6
9.1387499,1253
9.1412499,2626
9.1437499,3174
9.146249899999999,2578
9.1487499,1082
9.1512499,0
9.1537499,301
9.156249899999999,1724
9.1587499,2898
9.1612499,3069
9.1637499,2107
9.1662499,528
9.1687499,0
9.1712499,734
9.173749899999999,2189
9.1762499,3087
9.1787499,2866
9.1812499,1600
9.1837499,91
9.1862499,0
9.1887499,1061
9.191249899999999,2389
9.1937499,2969
9.1962499,2434
9.1987499,1011
9.2012499,0
9.2037499,335
9.2062499,1757
9.208749899999999,2918
9.2112499,3076
9.2137499,2118
9.2162499,557
9.218749899999999,0
9.2212499,787
9.2237499,2259
9.2262499,3150
9.2287499,2929
9.2312499,1672
9.2337499,209
9.236249899999999,53
9.2387499,1321
9.2412499,2707
9.2437499,3204
9.2462499,2628
9.2487499,1142
9.2512499,0
9.253749899999999,370
9.2562499,1836
9.2587499,3021
9.2612499,3153
9.2637499,2207
9.2662499,641
9.2687499,0
9.271249899999999,842
9.2737499,2328
9.2762499,3196
9.2787499,2951
9.281249899999999,1685
9.2837499,223
9.2862499,61
9.2887499,1332
9.2912499,2700
9.2937499,3196
9.2962499,2584
9.298749899999999,1076
9.3012499,0
9.3037499,338
9.3062499,1772
9.3087499,2934
9.3112499,3079
9.3137499,2101
9.316249899999999,530
9.3187499,0
9.3212499,905
9.3237499,2352
9.3262499,3150
9.3287499,2885
9.3312499,1604
9.333749899999999,146
9.3362499,48
9.3387499,1310
9.3412499,2673
9.343749899999999,3184
9.3462499,2562
9.3487499,1066
9.3512499,0
9.3537499,373
9.3562499,1830
9.3587499,2997
9.361249899999999,3122
9.3637499,2144
9.3662499,572
9.3687499,0
9.3712499,831
9.3737499,2296
9.3762499,3155
9.378749899999999,2895
9.3812499,1608
9.3837499,156
9.3862499,53
9.3887499,1308
9.3912499,2649
9.3937499,3148
9.396249899999999,2547
9.3987499,1060
9.4012499,0
9.4037499,344
9.406249899999999,1757
9.4087499,2881
9.4112499,2995
9.4137499,1999
9.4162499,433
9.4187499,0
9.4212499,758
9.423749899999999,2172
9.4262499,3013
9.4287499,2753
9.4312499,1472
9.4337499,49
9.4362499,24
9.4387499,1255
9.441249899999999,2566
9.4437499,3056
9.4462499,2420
9.4487499,934
9.4512499,0
9.4537499,338
9.4562499,1740
9.458749899999999,2855
9.4612499,2972
9.4637499,1999
9.4662499,459
9.468749899999999,0
9.4712499,800
9.4737499,2222
9.4762499,3048
9.4787499,2784
9.4812499,1516
9.4837499,107
9.486249899999999,58
9.4887499,1301
9.4912499,2608
9.4937499,3093
9.4962499,2463
9.4987499,989
9.5012499,0
9.503749899999999,378
9.5062499,1793
9.5087499,2897
9.5112499,3008
9.5137499,2036
9.5162499,509
9.5187499,0
9.521249899999999,844
9.5237499,2265
9.5262499,3076
9.5287499,2805
9.531249899999999,1542
9.5337499,146
9.5362499,82
9.5387499,1363
9.5412499,2674
9.5437499,3143
9.5462499,2510
9.548749899999999,1037
9.5512499,0
9.5537499,420
9.5562499,1859
9.5587499,2966
9.5612499,3071
9.5637499,2093
9.566249899999999,559
9.5687499,0
9.5712499,895
9.5737499,2336
9.5762499,3148
9.5787499,2869
9.5812499,1593
9.583749899999999,188
9.5862499,99
9.5887499,1403
9.5912499,2732
9.593749899999999,3187
9.5962499,2553
9.5987499,1071
9.6012499,1
9.6037499,451
9.6062499,1915
9.6087499,3034
9.611249899999999,3109
9.6137499,2115
9.6162499,568
9.6187499,0
9.6212499,923
9.6237499,2375
9.6262499,3182
9.628749899999999,2890
9.6312499,1598
9.6337499,191
9.6362499,111
9.6387499,1429
9.6412499,2755
9.6437499,3192
9.646249899999999,2539
9.6487499,1032
9.6512499,0
9.6537499,446
9.656249899999999,1912
9.6587499,3032
9.6612499,3103
9.6637499,2085
9.6662499,493
9.6687499,0
9.6712499,863
9.673749899999999,2313
9.6762499,3142
9.6787499,2853
9.6812499,1556
9.6837499,156
9.6862499,107
9.6887499,1432
9.691249899999999,2769
9.6937499,3193
9.6962499,2518
9.6987499,997
9.7012499,0
9.7037499,444
9.7062499,1917
9.708749899999999,3035
9.7112499,3098
9.7137499,2070
9.7162499,512
9.718749899999999,0
9.7212499,926
9.7237499,2383
9.7262499,3179
9.7287499,2863
9.7312499,1543
9.7337499,135
9.736249899999999,106
9.7387499,1432
9.7412499,2760
9.7437499,3184
9.7462499,2489
9.7487499,958
9.7512499,0
9.753749899999999,441
9.7562499,1898
9.7587499,2998
9.7612499,3055
9.7637499,2010
9.7662499,452
9.7687499,0
9.771249899999999,920
9.7737499,2371
9.7762499,3182
9.7787499,2773
9.781249899999999,1387
9.7837499,120
9.7862499,112
9.7887499,1448
9.7912499,2771
9.7937499,3185
9.7962499,2487
9.798749899999999,958
9.8012499,0
9.8037499,457
9.8062499,1925
9.8087499,3032
9.8112499,3082
9.8137499,2038
9.816249899999999,480
9.8187499,0
9.8212499,981
9.8237499,2426
9.8262499,3187
9.8287499,2842
9.8312499,1511
9.833749899999999,125
9.8362499,119
9.8387499,1445
9.8412499,2753
9.843749899999999,3171
9.8462499,2468
9.8487499,952
9.8512499,0
9.8537499,470
9.8562499,1925
9.8587499,3009
9.861249899999999,3051
9.8637499,2004
9.8662499,457
9.8687499,0
9.8712499,955
9.8737499,2402
9.8762499,3174
9.878749899999999,2829
9.8812499,1482
9.8837499,91
9.8862499,112
9.8887499,1434
9.8912499,2737
9.8937499,3155
9.896249899999999,2450
9.8987499,931
9.9012499,0
9.9037499,481
9.906249899999999,1946
9.9087499,3030
9.9112499,3059
9.9137499,2001
9.9162499,451
9.9187499,0
9.9212499,952
9.923749899999999,2388
9.9262499,3156
9.9287499,2808
9.9312499,1463
9.9337499,83
9.9362499,127
9.9387499,1511
9.941249899999999,2826
9.9437499,3193
9.9462499,2471
9.9487499,928
9.9512499,0
9.9537499,475
9.9562499,1936
9.958749899999999,3019
9.9612499,3045
9.9637499,1970
9.9662499,414
9.968749899999999,0
9.9712499,966
9.9737499,2413
9.9762499,3175
9.9787499,2813
9.9812499,1450
9.9837499,70
9.986249899999999,124
9.9887499,1466
9.9912499,2768
9.9937499,3164
9.9962499,2431
9.9987499,892
10.0012499,0
10.003749899999999,486
10.0062499,1949
10.0087499,3026
10.0112499,3043
10.0137499,1962
10.0162499,410
10.0187499,0
10.021249899999999,974
10.0237499,2412
10.0262499,3164
10.0287499,2794
10.031249899999999,1434
10.0337499,66
10.0362499,135
10.0387499,1484
10.0412499,2765
10.0437499,3148
10.0462499,2404
10.048749899999999,865
10.0512499,0
10.0537499,504
10.0562499,1965
10.0587499,3026
10.0612499,3029
10.0637499,1944
10.066249899999999,399
10.0687499,0
10.0712499,979
10.0737499,2407
10.0762499,3150
10.0787499,2774
10.0812499,1413
10.083749899999999,61
10.0862499,143
10.0887499,1490
10.0912499,2771
10.093749899999999,3146
10.0962499,2396
10.0987499,857
10.1012499,0
10.1037499,512
10.1062499,1973
10.1087499,3027
10.111249899999999,3026
10.1137499,1938
10.1162499,402
10.1187499,0
10.1212499,1002
10.1237499,2433
10.1262499,3163
10.128749899999999,2774
10.1312499,1408
10.1337499,64
10.1362499,153
10.1387499,1511
10.1412499,2789
10.1437499,3153
10.146249899999999,2389
10.1487499,844
10.1512499,0
10.1537499,522
10.156249899999999,1985
10.1587499,3037
10.1612499,3026
10.1637499,1925
10.1662499,389
10.1687499,0
10.1712499,1016
10.173749899999999,2442
10.1762499,3163
10.1787499,2766
10.1812499,1390
10.1837499,48
10.1862499,154
10.1887499,1511
10.191249899999999,2784
10.1937499,3145
10.1962499,2384
10.1987499,841
10.2012499,0
10.2037499,531
10.2062499,1994
10.208749899999999,2992
10.2112499,2951
10.2137499,1859
10.2162499,351
10.218749899999999,0
10.2212499,1034
10.2237499,2454
10.2262499,3167
10.2287499,2763
10.2312499,1253
10.2337499,3
10.236249899999999,236
10.2387499,1524
10.2412499,2795
10.2437499,3148
10.2462499,2378
10.2487499,834
10.2512499,0
10.253749899999999,554
10.2562499,2023
10.2587499,3058
10.2612499,3022
10.2637499,1909
10.2662499,380
10.2687499,0
10.271249899999999,1040
10.2737499,2462
10.2762499,3169
10.2787499,2760
10.281249899999999,1377
10.2837499,48
10.2862499,174
10.2887499,1548
10.2912499,2823
10.2937499,3161
10.2962499,2383
10.298749899999999,837
10.3012499,0
10.3037499,565
10.3062499,2035
10.3087499,3064
10.3112499,3022
10.3137499,1907
10.316249899999999,377
10.3187499,0
10.3212499,1061
10.3237499,2481
10.3262499,3177
10.3287499,2758
10.3312499,1371
10.333749899999999,51
10.3362499,185
10.3387499,1564
10.3412499,2832
10.343749899999999,3164
10.3462499,2381
10.3487499,833
10.3512499,0
10.3537499,576
10.3562499,2051
10.3587499,3077
10.361249899999999,3022
10.3637499,1893
10.3662499,362
10.3687499,0
10.3712499,1061
10.3737499,2471
10.3762499,3167
10.378749899999999,2744
10.3812499,1356
10.3837499,46
10.3862499,191
10.3887499,1575
10.3912499,2839
10.3937499,3159
10.396249899999999,2362
10.3987499,810
10.4012499,0
10.4037499,581
10.406249899999999,2049
10.4087499,3063
10.4112499,3003
10.4137499,1865
10.4162499,338
10.4187499,0
10.4212499,1061
10.423749899999999,2476
10.4262499,3166
10.4287499,2731
10.4312499,1332
10.4337499,24
10.4362499,186
10.4387499,1567
10.441249899999999,2826
10.4437499,3143
10.4462499,2336
10.4487499,781
10.4512499,0
10.4537499,580
10.4562499,2044
10.458749899999999,3058
10.4612499,2998
10.4637499,1864
10.4662499,343
10.468749899999999,0
10.4712499,1086
10.4737499,2499
10.4762499,3172
10.4787499,2747
10.4812499,1382
10.4837499,75
10.486249899999999,209
10.4887499,1595
10.4912499,2844
10.4937499,3145
10.4962499,2328
10.4987499,768
10.5012499,0
10.503749899999999,586
10.5062499,2046
10.5087499,3051
10.5112499,2977
10.5137499,1832
10.5162499,312
10.5187499,0
10.521249899999999,1086
10.5237499,2494
10.5262499,3169
10.5287499,2723
10.531249899999999,1321
10.5337499,30
10.5362499,212
10.5387499,1608
10.5412499,2864
10.5437499,3159
10.5462499,2333
10.548749899999999,776
10.5512499,0
10.5537499,607
10.5562499,2075
10.5587499,3076
10.5612499,2995
10.5637499,1838
10.566249899999999,315
10.5687499,0
10.5712499,1089
10.5737499,2487
10.5762499,3153
10.5787499,2689
10.5812499,1272
10.583749899999999,1
10.5862499,194
10.5887499,1569
10.5912499,2806
10.593749899999999,3100
10.5962499,2260
10.5987499,696
10.6012499,0
10.6037499,592
10.6062499,2054
10.6087499,3051
10.611249899999999,2960
10.6137499,1790
10.6162499,262
10.6187499,0
10.6212499,1081
10.6237499,2486
10.6262499,3148
10.628749899999999,2676
10.6312499,1250
10.6337499,0
10.6362499,204
10.6387499,1596
10.6412499,2845
10.6437499,3134
10.646249899999999,2284
10.6487499,713
10.6512499,0
10.6537499,620
10.656249899999999,2093
10.6587499,3090
10.6612499,2995
10.6637499,1827
10.6662499,309
10.6687499,0
10.6712499,1132
10.673749899999999,2544
10.6762499,3187
10.6787499,2708
10.6812499,1274
10.6837499,3
10.6862499,299
10.6887499,1730
10.691249899999999,2924
10.6937499,3142
10.6962499,2289
10.6987499,723
10.7012499,0
10.7037499,630
10.7062499,2099
10.708749899999999,3084
10.7112499,2972
10.7137499,1790
10.7162499,269
10.718749899999999,0
10.7212499,1116
10.7237499,2521
10.7262499,3166
10.7287499,2676
10.7312499,1242
10.7337499,0
10.736249899999999,222
10.7387499,1625
10.7412499,2860
10.7437499,3126
10.7462499,2260
10.7487499,691
10.7512499,0
10.753749899999999,583
10.7562499,2036
10.7587499,3026
10.7612499,2932
10.7637499,1761
10.7662499,261
10.7687499,0
10.771249899999999,1132
10.7737499,2528
10.7762499,3159
10.7787499,2657
10.781249899999999,1216
10.7837499,0
10.7862499,223
10.7887499,1622
10.7912499,2852
10.7937499,3121
10.7962499,2259
10.798749899999999,694
10.8012499,0
10.8037499,649
10.8062499,2115
10.8087499,3090
10.8112499,2966
10.8137499,1775
10.816249899999999,265
10.8187499,0
10.8212499,1150
10.8237499,2542
10.8262499,3164
10.8287499,2650
10.8312499,1206
10.833749899999999,0
10.8362499,233
10.8387499,1632
10.8412499,2848
10.843749899999999,3101
10.8462499,2220
10.8487499,654
10.8512499,0
10.8537499,657
10.8562499,2117
10.8587499,3076
10.861249899999999,2942
10.8637499,1741
10.8662499,240
10.8687499,0
10.8712499,1156
10.8737499,2549
10.8762499,3164
10.878749899999999,2644
10.8812499,1195
10.8837499,0
10.8862499,243
10.8887499,1646
10.8912499,2861
10.8937499,3109
10.896249899999999,2226
10.8987499,657
10.9012499,0
10.9037499,668
10.906249899999999,2130
10.9087499,3080
10.9112499,2932
10.9137499,1722
10.9162499,222
10.9187499,0
10.9212499,1166
10.923749899999999,2558
10.9262499,3167
10.9287499,2636
10.9312499,1184
10.9337499,0
10.9362499,261
10.9387499,1685
10.941249899999999,2898
10.9437499,3124
10.9462499,2222
10.9487499,649
10.9512499,0
10.9537499,691
10.9562499,2164
10.958749899999999,3114
10.9612499,2956
10.9637499,1740
10.9662499,241
10.968749899999999,0
10.9712499,1190
10.9737499,2573
10.9762499,3166
10.9787499,2628
10.9812499,1181
10.9837499,0
10.986249899999999,272
10.9887499,1687
10.9912499,2887
10.9937499,3105
10.9962499,2201
10.9987499,630
11.0012499,0
11.003749899999999,697
11.0062499,2157
11.0087499,3090
11.0112499,2921
11.0137499,1704
11.0162499,223
11.0187499,0
11.021249899999999,1243
11.0237499,2661
11.0262499,3203
11.0287499,2653
11.031249899999999,1181
11.0337499,0
11.0362499,280
11.0387499,1704
11.0412499,2911
11.0437499,3126
11.0462499,2215
11.048749899999999,647
11.0512499,0
11.0537499,733
11.0562499,2201
11.0587499,3132
11.0612499,2950
11.0637499,1714
11.066249899999999,223
11.0687499,1
11.0712499,1235
11.0737499,2620
11.0762499,3188
11.0787499,2628
11.0812499,1150
11.083749899999999,0
11.0862499,294
11.0887499,1728
11.0912499,2932
11.093749899999999,3130
11.0962499,2202
11.0987499,626
11.1012499,0
11.1037499,731
11.1062499,2204
11.1087499,3130
11.111249899999999,2942
11.1137499,1698
11.1162499,209
11.1187499,3
11.1212499,1237
11.1237499,2620
11.1262499,3182
11.128749899999999,2611
11.1312499,1131
11.1337499,0
11.1362499,302
11.1387499,1851
11.1412499,2995
11.1437499,3090
11.146249899999999,2072
11.1487499,602
11.1512499,0
11.1537499,744
11.156249899999999,2218
11.1587499,3138
11.1612499,2934
11.1637499,1683
11.1662499,199
11.1687499,12
11.1712499,1261
11.173749899999999,2649
11.1762499,3195
11.1787499,2620
11.1812499,1134
11.1837499,0
11.1862499,319
11.1887499,1766
11.191249899999999,2961
11.1937499,3137
11.1962499,2196
11.1987499,615
11.2012499,0
11.2037499,773
11.2062499,2246
11.208749899999999,3150
11.2112499,2935
11.2137499,1679
11.2162499,203
11.218749899999999,35
11.2212499,1282
11.2237499,2661
11.2262499,3193
11.2287499,2607
11.2312499,1113
11.2337499,-1
11.236249899999999,322
11.2387499,1767
11.2412499,2955
11.2437499,3117
11.2462499,2159
11.2487499,572
11.2512499,0
11.253749899999999,768
11.2562499,2241
11.2587499,3145
11.2612499,2924
11.2637499,1656
11.2662499,177
11.2687499,29
11.271249899999999,1282
11.2737499,2661
11.2762499,3192
11.2787499,2597
11.281249899999999,1103
11.2837499,0
11.2862499,338
11.2887499,1788
11.2912499,2951
11.2937499,3072
11.2962499,2104
11.298749899999999,541
11.3012499,0
11.3037499,791
11.3062499,2271
11.3087499,3166
11.3112499,2931
11.3137499,1658
11.316249899999999,183
11.3187499,43
11.3212499,1297
11.3237499,2671
11.3262499,3192
11.3287499,2586
11.3312499,1084
11.333749899999999,0
11.3362499,341
11.3387499,1790
11.3412499,2966
11.343749899999999,3114
11.3462499,2138
11.3487499,552
11.3512499,0
11.3537499,794
11.3562499,2262
11.3587499,3148
11.361249899999999,2903
11.3637499,1621
11.3662499,154
11.3687499,45
11.3712499,1306
11.3737499,2669
11.3762499,3180
11.378749899999999,2557
11.3812499,1045
11.3837499,0
11.3862499,352
11.3887499,1806
11.3912499,2972
11.3937499,3106
11.396249899999999,2118
11.3987499,536
11.4012499,0
11.4037499,805
11.406249899999999,2270
11.4087499,3143
11.4112499,2887
11.4137499,1595
11.4162499,133
11.4187499,48
11.4212499,1316
11.423749899999999,2678
11.4262499,3182
11.4287499,2549
11.4312499,1036
11.4337499,0
11.4362499,359
11.4387499,1811
11.441249899999999,2971
11.4437499,3098
11.4462499,2106
11.4487499,533
11.4512499,0
11.4537499,821
11.4562499,2271
11.458749899999999,3130
11.4612499,2876
11.4637499,1600
11.4662499,159
11.468749899999999,64
11.4712499,1337
11.4737499,2682
11.4762499,3174
11.4787499,2537
11.4812499,1031
11.4837499,0
11.486249899999999,375
11.4887499,1822
11.4912499,2964
11.4937499,3085
11.4962499,2096
11.4987499,525
11.5012499,0
11.503749899999999,839
11.5062499,2294
11.5087499,3140
11.5112499,2874
11.5137499,1580
11.5162499,146
11.5187499,69
11.521249899999999,1351
11.5237499,2695
11.5262499,3171
11.5287499,2513
11.531249899999999,997
11.5337499,0
11.5362499,383
11.5387499,1843
11.5412499,2990
11.5437499,3098
11.5462499,2088
11.548749899999999,505
11.5512499,0
11.5537499,852
11.5562499,2313
11.5587499,3156
11.5612499,2874
11.5637499,1616
11.566249899999999,191
11.5687499,90
11.5712499,1397
11.5737499,2744
11.5762499,3192
11.5787499,2528
11.5812499,997
11.583749899999999,0
11.5862499,393
11.5887499,1853
11.5912499,3042
11.593749899999999,3045
11.5962499,1943
11.5987499,381
11.6012499,0
11.6037499,863
11.6062499,2325
11.6087499,3156
11.611249899999999,2864
11.6137499,1540
11.6162499,99
11.6187499,72
11.6212499,1368
11.6237499,2711
11.6262499,3179
11.628749899999999,2508
11.6312499,981
11.6337499,0
11.6362499,410
11.6387499,1870
11.6412499,3003
11.6437499,3087
11.646249899999999,2051
11.6487499,468
11.6512499,0
11.6537499,883
11.656249899999999,2342
11.6587499,3161
11.6612499,2850
11.6637499,1522
11.6662499,109
11.6687499,87
11.6712499,1384
11.673749899999999,2707
11.6762499,3159
11.6787499,2479
11.6812499,961
11.6837499,0
11.6862499,420
11.6887499,1875
11.691249899999999,2990
11.6937499,3067
11.6962499,2038
11.6987499,475
11.7012499,0
11.7037499,895
11.7062499,2339
11.708749899999999,3142
11.7112499,2823
11.7137499,1496
11.7162499,91
11.718749899999999,90
11.7212499,1395
11.7237499,2716
11.7262499,3159
11.7287499,2468
11.7312499,947
11.7337499,0
11.736249899999999,438
11.7387499,1893
11.7412499,2998
11.7437499,3059
11.7462499,2019
11.7487499,459
11.7512499,0
11.753749899999999,912
11.7562499,2355
11.7587499,3151
11.7612499,2826
11.7637499,1493
11.7662499,93
11.7687499,98
11.771249899999999,1414
11.7737499,2736
11.7762499,3164
11.7787499,2463
11.781249899999999,934
11.7837499,0
11.7862499,443
11.7887499,1901
11.7912499,3001
11.7937499,3053
11.7962499,2006
11.798749899999999,446
11.8012499,0
11.8037499,924
11.8062499,2367
11.8087499,3153
11.8112499,2818
11.8137499,1477
11.816249899999999,82
11.8187499,104
11.8212499,1427
11.8237499,2739
11.8262499,3164
11.8287499,2457
11.8312499,928
11.833749899999999,0
11.8362499,415
11.8387499,1864
11.8412499,2966
11.843749899999999,3030
11.8462499,1986
11.8487499,439
11.8512499,0
11.8537499,950
11.8562499,2394
11.8587499,3167
11.861249899999999,2821
11.8637499,1475
11.8662499,88
11.8687499,119
11.8712499,1453
11.8737499,2761
11.8762499,3166
11.878749899999999,2444
11.8812499,908
11.8837499,0
11.8862499,470
11.8887499,1930
11.8912499,3018
11.8937499,3048
11.896249899999999,1980
11.8987499,423
11.9012499,0
11.9037499,947
11.906249899999999,2383
11.9087499,3150
11.9112499,2794
11.9137499,1438
11.9162499,66
11.9187499,120
11.9212499,1458
11.923749899999999,2758
11.9262499,3156
11.9287499,2425
11.9312499,887
11.9337499,0
11.9362499,480
11.9387499,1941
11.941249899999999,3018
11.9437499,3034
11.9462499,1956
11.9487499,404
11.9512499,0
11.9537499,968
11.9562499,2400
11.958749899999999,3158
11.9612499,2789
11.9637499,1430
11.9662499,62
11.9687499,130
11.9712499,1474
11.9737499,2773
11.9762499,3161
11.9787499,2415
11.9812499,868
11.9837499,0
11.986249899999999,496
11.9887499,1962
11.9912499,3030
11.9937499,3038
11.9962499,1951
11.9987499,401
12.0012499,0
12.003749899999999,978
12.0062499,2405
12.0087499,3151
12.0112499,2773
12.0137499,1405
12.0162499,49
12.0187499,140
12.021249899999999,1492
12.0237499,2784
12.0262499,3161
12.0287499,2408
12.0312499,860
12.0337499,0
12.0362499,505
12.0387499,2081
12.0412499,3074
12.0437499,2980
12.0462499,1814
12.048749899999999,386
12.0512499,0
12.0537499,986
12.0562499,2410
12.0587499,3150
12.0612499,2768
12.0637499,1395
12.066249899999999,45
12.0687499,145
12.0712499,1496
12.0737499,2784
12.0762499,3155
12.0787499,2392
12.0812499,842
12.083749899999999,0
12.0862499,522
12.0887499,1986
12.0912499,3035
12.0937499,3024
12.0962499,1923
12.0987499,380
12.1012499,0
12.1037499,1019
12.1062499,2494
12.1087499,3201
12.111249899999999,2802
12.1137499,1409
12.1162499,51
12.1187499,153
12.1212499,1509
12.1237499,2787
12.1262499,3145
12.128749899999999,2367
12.1312499,818
12.1337499,0
12.1362499,525
12.1387499,1988
12.1412499,3035
12.1437499,3009
12.146249899999999,1901
12.1487499,365
12.1512499,-1
12.1537499,1023
12.1562499,2447
12.1587499,3163
12.1612499,2757
12.1637499,1371
12.1662499,38
12.1687499,162
12.1712499,1529
12.173749899999999,2805
12.1762499,3151
12.1787499,2363
12.1812499,807
12.1837499,0
12.1862499,544
12.1887499,2014
12.191249899999999,3050
12.1937499,3013
12.1962499,1894
12.1987499,359
12.2012499,0
12.2037499,1044
12.2062499,2468
12.208749899999999,3174
12.2112499,2752
12.2137499,1353
12.2162499,27
12.2187499,172
12.2212499,1546
12.2237499,2816
12.2262499,3148
12.2287499,2349
12.2312499,792
12.2337499,0
12.236249899999999,559
12.2387499,2028
12.2412499,3056
12.2437499,3008
12.2462499,1880
12.2487499,348
12.2512499,0
12.253749899999999,1061
12.2562499,2481
12.2587499,3174
12.2612499,2742
12.2637499,1339
12.2662499,25
12.2687499,182
12.271249899999999,1559
12.2737499,2826
12.2762499,3151
12.2787499,2346
12.2812499,791
12.2837499,0
12.2862499,578
12.2887499,2048
12.2912499,3067
12.2937499,3005
12.2962499,1862
12.298749899999999,328
12.3012499,0
12.3037499,1068
12.3062499,2479
12.3087499,3161
12.3112499,2711
12.3137499,1305
12.316249899999999,9
12.3187499,190
12.3212499,1572
12.3237499,2829
12.3262499,3143
12.3287499,2326
12.3312499,768
12.333749899999999,0
12.3362499,589
12.3387499,2056
12.3412499,3064
12.3437499,2995
12.3462499,1848
12.3487499,322
12.3512499,0
12.3537499,1089
12.3562499,2499
12.3587499,3171
12.361249899999999,2718
12.3637499,1308
12.3662499,16
12.3687499,207
12.3712499,1600
12.3737499,2855
12.3762499,3111
12.378749899999999,2263
12.3812499,717
12.3837499,0
12.3862499,617
12.3887499,2093
12.3912499,3097
12.3937499,3011
12.396249899999999,1854
12.3987499,331
12.4012499,0
12.4037499,1113
12.4062499,2515
12.4087499,3172
12.4112499,2705
12.4137499,1290
12.4162499,11
12.4187499,219
12.4212499,1614
12.423749899999999,2858
12.4262499,3145
12.4287499,2307
12.4312499,752
12.4337499,0
12.4362499,633
12.4387499,2106
12.441249899999999,3093
12.4437499,2998
12.4462499,1840
12.4487499,328
12.4512499,0
12.4537499,1134
12.4562499,2536
12.458749899999999,3180
12.4612499,2713
12.4637499,1298
12.4662499,25
12.4687499,235
12.4712499,1638
12.4737499,2879
12.4762499,3155
12.4787499,2315
12.4812499,757
12.4837499,0
12.486249899999999,758
12.4887499,2218
12.4912499,3124
12.4937499,2927
12.4962499,1815
12.4987499,307
12.5012499,0
12.503749899999999,1140
12.5062499,2529
12.5087499,3163
12.5112499,2673
12.5137499,1248
12.5162499,1
12.5187499,232
12.521249899999999,1627
12.5237499,2852
12.5262499,3119
12.5287499,2257
12.5312499,697
12.5337499,0
12.5362499,638
12.5387499,2086
12.5412499,3043
12.5437499,2921
12.5462499,1741
12.548749899999999,243
12.5512499,0
12.5537499,1119
12.5562499,2489
12.5587499,3111
12.5612499,2605
12.5637499,1173
12.566249899999999,0
12.5687499,220
12.5712499,1598
12.5737499,2802
12.5762499,3051
12.5787499,2178
12.5812499,623
12.583749899999999,0
12.5862499,626
12.5887499,2065
12.5912499,3011
12.5937499,2879
12.5962499,1691
12.5987499,201
12.6012499,0
12.6037499,1121
12.6062499,2491
12.6087499,3106
12.611249899999999,2592
12.6137499,1160
12.6162499,0
12.6187499,238
12.6212499,1627
12.6237499,2829
12.6262499,3071
12.628749899999999,2194
12.6312499,636
12.6337499,0
12.6362499,663
12.6387499,2114
12.6412499,3058
12.6437499,2914
12.646249899999999,1743
12.6487499,301
12.6512499,11
12.6537499,1218
12.6562499,2595
12.6587499,3179
12.6612499,2642
12.6637499,1194
12.6662499,0
12.6687499,272
12.6712499,1690
12.673749899999999,2903
12.6762499,3132
12.6787499,2241
12.6812499,683
12.6837499,0
12.6862499,713
12.6887499,2184
12.691249899999999,3124
12.6937499,2963
12.6962499,1754
12.6987499,265
12.7012499,1
12.7037499,1218
12.7062499,2607
12.708749899999999,3190
12.7112499,2660
12.7137499,1208
12.7162499,1
12.7187499,293
12.7212499,1725
12.7237499,2935
12.7262499,3146
12.7287499,2244
12.7312499,678
12.7337499,0
12.736249899999999,728
12.7387499,2193
12.7412499,3124
12.7437499,2950
12.7462499,1730
12.7487499,244
12.7512499,3
12.753749899999999,1226
12.7562499,2605
12.7587499,3179
12.7612499,2626
12.7637499,1168
12.7662499,0
12.7687499,293
12.771249899999999,1717
12.7737499,2913
12.7762499,3117
12.7787499,2202
12.7812499,641
12.7837499,0
12.7862499,736
12.7887499,2202
12.7912499,3124
12.7937499,2937
12.7962499,1711
12.798749899999999,235
12.8012499,11
12.8037499,1242
12.8062499,2620
12.8087499,3184
12.8112499,2624
12.8137499,1163
12.816249899999999,0
12.8187499,315
12.8212499,1754
12.8237499,2953
12.8262499,3138
12.8287499,2213
12.8312499,644
12.833749899999999,0
12.8362499,760
12.8387499,2233
12.8412499,3145
12.8437499,2947
12.8462499,1709
12.8487499,238
12.8512499,35
12.8537499,1271
12.8562499,2645
12.8587499,3192
12.861249899999999,2624
12.8637499,1150
12.8662499,0
12.8687499,322
12.8712499,1756
12.8737499,2945
12.8762499,3126
12.878749899999999,2193
12.8812499,628
12.8837499,0
12.8862499,766
12.8887499,2230
12.8912499,3130
12.8937499,2921
12.896249899999999,1677
12.8987499,214
12.9012499,35
12.9037499,1271
12.9062499,2644
12.9087499,3185
12.9112499,2602
12.9137499,1126
12.9162499,0
12.9187499,278
12.9212499,1685
12.923749899999999,2871
12.9262499,3069
12.9287499,2147
12.9312499,493
12.9337499,0
12.9362499,899
12.9387499,2244
12.941249899999999,3134
12.9437499,2911
12.9462499,1653
12.9487499,188
12.9512499,35
12.9537499,1277
12.9562499,2642
12.958749899999999,3175
12.9612499,2578
12.9637499,1094
12.9662499,0
12.9687499,333
12.9712499,1764
12.9737499,2932
12.9762499,3090
12.9787499,2130
12.9812499,563
12.9837499,0
12.986249899999999,773
12.9887499,2220
12.9912499,3101
12.9937499,2874
12.9962499,1616
12.9987499,164
13.0012499,41
13.003749899999999,1284
13.0062499,2632
13.0087499,3155
13.0112499,2547
13.0137499,1063
13.0162499,0
13.0187499,339
13.021249899999999,1770
13.0237499,2924
13.0262499,3072
13.0287499,2109
13.0312499,546
13.0337499,0
13.0362499,789
13.0387499,2239
13.0412499,3111
13.0437499,2874
13.0462499,1609
13.048749899999999,161
13.0512499,48
13.0537499,1297
13.0562499,2644
13.0587499,3163
13.0612499,2550
13.0637499,1061
13.066249899999999,0
13.0687499,354
13.0712499,1795
13.0737499,2951
13.0762499,3092
13.0787499,2120
13.0812499,559
13.083749899999999,0
13.0862499,816
13.0887499,2273
13.0912499,3137
13.0937499,2890
13.0962499,1621
13.0987499,178
13.1012499,61
13.1037499,1322
13.1062499,2671
13.1087499,3175
13.111249899999999,2553
13.1137499,1063
13.1162499,0
13.1187499,381
13.1212499,1828
13.1237499,2977
13.1262499,3103
13.128749899999999,2128
13.1312499,572
13.1337499,0
13.1362499,852
13.1387499,2315
13.1412499,3164
13.1437499,2906
13.146249899999999,1632
13.1487499,196
13.1512499,77
13.1537499,1359
13.1562499,2708
13.1587499,3190
13.1612499,2565
13.1637499,1076
13.1662499,0
13.1687499,396
13.1712499,1846
13.173749899999999,2990
13.1762499,3106
13.1787499,2123
13.1812499,562
13.1837499,0
13.1862499,855
13.1887499,2357
13.191249899999999,3203
13.1937499,2932
13.1962499,1648
13.1987499,206
13.2012499,80
13.2037499,1359
13.2062499,2702
13.208749899999999,3184
13.2112499,2555
13.2137499,1061
13.2162499,0
13.2187499,409
13.2212499,1862
13.2237499,2998
13.2262499,3105
13.2287499,2112
13.2312499,557
13.2337499,0
13.236249899999999,874
13.2387499,2333
13.2412499,3164
13.2437499,2887
13.2462499,1600
13.2487499,175
13.2512499,82
13.253749899999999,1368
13.2562499,2707
13.2587499,3179
13.2612499,2534
13.2637499,1034
13.2662499,0
13.2687499,407
13.271249899999999,1859
13.2737499,2987
13.2762499,3088
13.2787499,2089
13.2812499,538
13.2837499,0
13.2862499,878
13.2887499,2326
13.2912499,3151
13.2937499,2866
13.2962499,1572
13.298749899999999,159
13.3012499,91
13.3037499,1388
13.3062499,2718
13.3087499,3177
13.3112499,2523
13.3137499,1024
13.316249899999999,0
13.3187499,428
13.3212499,1886
13.3237499,3008
13.3262499,3095
13.3287499,2085
13.3312499,531
13.333749899999999,0
13.3362499,894
13.3387499,2346
13.3412499,3161
13.3437499,2871
13.3462499,1574
13.3487499,169
13.3512499,103
13.3537499,1406
13.3562499,2732
13.3587499,3180
13.361249899999999,2515
13.3637499,1008
13.3662499,0
13.3687499,431
13.3712499,1885
13.3737499,3000
13.3762499,3079
13.378749899999999,2059
13.3812499,412
13.3837499,0
13.3862499,1018
13.3887499,2441
13.3912499,3148
13.3937499,2835
13.396249899999999,1525
13.3987499,124
13.4012499,93
13.4037499,1388
13.4062499,2699
13.4087499,3143
13.4112499,2457
13.4137499,942
13.4162499,0
13.4187499,420
13.4212499,1856
13.423749899999999,2948
13.4262499,3018
13.4287499,1990
13.4312499,444
13.4337499,0
13.4362499,873
13.4387499,2292
13.441249899999999,3082
13.4437499,2769
13.4462499,1451
13.4487499,62
13.4512499,82
13.4537499,1361
13.4562499,2657
13.458749899999999,3059
13.4612499,2323
13.4637499,818
13.4662499,0
13.4687499,412
13.4712499,1835
13.4737499,2924
13.4762499,2990
13.4787499,1961
13.4812499,418
13.4837499,0
13.486249899999999,884
13.4887499,2302
13.4912499,3088
13.4937499,2761
13.4962499,1435
13.4987499,54
13.5012499,90
13.503749899999999,1388
13.5062499,2689
13.5087499,3122
13.5112499,2420
13.5137499,908
13.5162499,0
13.5187499,444
13.521249899999999,1891
13.5237499,2982
13.5262499,3029
13.5287499,1973
13.5312499,422
13.5337499,0
13.5362499,912
13.5387499,2346
13.5412499,3130
13.5437499,2798
13.5462499,1471
13.548749899999999,90
13.5512499,111
13.5537499,1432
13.5562499,2737
13.5587499,3156
13.5612499,2450
13.5637499,929
13.566249899999999,0
13.5687499,467
13.5712499,1928
13.5737499,3027
13.5762499,3063
13.5787499,1993
13.5812499,428
13.583749899999999,0
13.5862499,937
13.5887499,2388
13.5912499,3171
13.5937499,2823
13.5962499,1466
13.5987499,85
13.6012499,120
13.6037499,1448
13.6062499,2748
13.6087499,3156
13.611249899999999,2444
13.6137499,923
13.6162499,0
13.6187499,485
13.6212499,1940
13.6237499,3016
13.6262499,3045
13.628749899999999,1988
13.6312499,452
13.6337499,0
13.6362499,960
13.6387499,2383
13.6412499,3142
13.6437499,2787
13.646249899999999,1450
13.6487499,95
13.6512499,133
13.6537499,1463
13.6562499,2747
13.6587499,3143
13.6612499,2420
13.6637499,907
13.6662499,0
13.6687499,497
13.6712499,1951
13.673749899999999,3013
13.6762499,3034
13.6787499,1972
13.6812499,443
13.6837499,0
13.6862499,974
13.6887499,2394
13.691249899999999,3143
13.6937499,2786
13.6962499,1445
13.6987499,96
13.7012499,141
13.7037499,1474
13.7062499,2757
13.708749899999999,3148
13.7112499,2418
13.7137499,902
13.7162499,0
13.7187499,505
13.7212499,1952
13.7237499,3006
13.7262499,3018
13.7287499,1951
13.7312499,481
13.7337499,0
13.736249899999999,1036
13.7387499,2447
13.7412499,3166
13.7437499,2784
13.7462499,1434
13.7487499,87
13.7512499,148
13.753749899999999,1485
13.7562499,2763
13.7587499,3145
13.7612499,2399
13.7637499,876
13.7662499,0
13.7687499,518
13.771249899999999,1965
13.7737499,3011
13.7762499,3011
13.7787499,1930
13.7812499,407
13.7837499,0
13.7862499,1000
13.7887499,2418
13.7912499,3148
13.7937499,2765
13.7962499,1416
13.798749899999999,85
13.8012499,161
13.8037499,1513
13.8062499,2786
13.8087499,3148
13.8112499,2394
13.8137499,873
13.816249899999999,0
13.8187499,539
13.8212499,1986
13.8237499,3024
13.8262499,3011
13.8287499,1922
13.8312499,312
13.833749899999999,0
13.8362499,1144
13.8387499,2439
13.8412499,3158
13.8437499,2760
13.8462499,1397
13.8487499,74
13.8512499,167
13.8537499,1522
13.8562499,2786
13.8587499,3138
13.861249899999999,2373
13.8637499,850
13.8662499,0
13.8687499,551
13.8712499,2007
13.8737499,3040
13.8762499,3013
13.878749899999999,1912
13.8812499,394
13.8837499,0
13.8862499,1032
13.8887499,2446
13.8912499,3151
13.8937499,2748
13.896249899999999,1385
13.8987499,70
13.9012499,178
13.9037499,1540
13.9062499,2798
13.9087499,3140
13.9112499,2368
13.9137499,841
13.9162499,0
13.9187499,560
13.9212499,2014
13.923749899999999,3034
13.9262499,2995
13.9287499,1888
13.9312499,380
13.9337499,0
13.9362499,1044
13.9387499,2447
13.941249899999999,3145
13.9437499,2729
13.9462499,1358
13.9487499,56
13.9512499,186
13.9537499,1553
13.9562499,2806
13.958749899999999,3138
13.9612499,2350
13.9637499,823
13.9662499,0
13.9687499,581
13.9712499,2033
13.9737499,3045
13.9762499,2995
13.9787499,1880
13.9812499,373
13.9837499,0
13.986249899999999,1071
13.9887499,2473
13.9912499,3158
13.9937499,2728
13.9962499,1348
13.9987499,54
14.0012499,159
14.003749899999999,1498
14.0062499,2750
14.0087499,3098
14.0112499,2326
14.0137499,813
14.0162499,0
14.0187499,599
14.021249899999999,2052
14.0237499,3050
14.0262499,2985
14.0287499,1864
14.0312499,360
14.0337499,0
14.0362499,1082
14.0387499,2475
14.0412499,3150
14.0437499,2710
14.0462499,1332
14.048749899999999,54
14.0512499,209
14.0537499,1583
14.0562499,2824
14.0587499,3132
14.0612499,2328
14.0637499,796
14.066249899999999,0
14.0687499,610
14.0712499,2060
14.0737499,3055
14.0762499,2985
14.0787499,1857
14.0812499,364
14.083749899999999,0
14.0862499,1102
14.0887499,2497
14.0912499,3156
14.0937499,2702
14.0962499,1311
14.0987499,40
14.1012499,217
14.1037499,1596
14.1062499,2835
14.1087499,3137
14.111249899999999,2321
14.1137499,792
14.1162499,0
14.1187499,631
14.1212499,2085
14.1237499,3072
14.1262499,2985
14.128749899999999,1840
14.1312499,343
14.1337499,0
14.1362499,1123
14.1387499,2521
14.1412499,3172
14.1437499,2702
14.146249899999999,1297
14.1487499,29
14.1512499,228
14.1537499,1625
14.1562499,2869
14.1587499,3150
14.1612499,2305
14.1637499,741
14.1662499,0
14.1687499,626
14.1712499,2104
14.173749899999999,3108
14.1762499,2997
14.1787499,1809
14.1812499,280
14.1837499,0
14.1862499,1132
14.1887499,2553
14.191249899999999,3193
14.1937499,2700
14.1962499,1247
14.1987499,0
14.2012499,220
14.2037499,1638
14.2062499,2898
14.208749899999999,3163
14.2112499,2289
14.2137499,697
14.2162499,0
14.2187499,641
14.2212499,2128
14.2237499,3124
14.2262499,2997
14.2287499,1795
14.2312499,264
14.2337499,0
14.236249899999999,1147
14.2387499,2568
14.2412499,3196
14.2437499,2690
14.2462499,1229
14.2487499,0
14.2512499,232
14.253749899999999,1656
14.2562499,2914
14.2587499,3167
14.2612499,2291
14.2637499,696
14.2662499,0
14.2687499,657
14.271249899999999,2288
14.2737499,3206
14.2762499,2972
14.2787499,1693
14.2812499,273
14.2837499,0
14.2862499,1156
14.2887499,2581
14.2912499,3200
14.2937499,2686
14.2962499,1214
14.298749899999999,0
14.3012499,238
14.3037499,1670
14.3062499,2931
14.3087499,3166
14.3112499,2262
14.3137499,652
14.316249899999999,0
14.3187499,660
14.3212499,2165
14.3237499,3155
14.3262499,2995
14.3287499,1749
14.3312499,201
14.333749899999999,0
14.3362499,1179
14.3387499,2624
14.3412499,3208
14.3437499,2686
14.3462499,1181
14.3487499,0
14.3512499,233
14.3537499,1682
14.3562499,2955
14.3587499,3171
14.361249899999999,2249
14.3637499,615
14.3662499,0
14.3687499,675
14.3712499,2191
14.3737499,3175
14.3762499,2995
14.378749899999999,1732
14.3812499,178
14.3837499,0
14.3862499,1179
14.3887499,2621
14.3912499,3206
14.3937499,2668
14.396249899999999,1153
14.3987499,0
14.4012499,241
14.4037499,1695
14.4062499,2961
14.4087499,3171
14.4112499,2241
14.4137499,610
14.4162499,0
14.4187499,684
14.4212499,2197
14.423749899999999,3174
14.4262499,2989
14.4287499,1724
14.4312499,178
14.4337499,0
14.4362499,1202
14.4387499,2640
14.441249899999999,3206
14.4437499,2657
14.4462499,1139
14.4487499,0
14.4512499,254
14.4537499,1709
14.4562499,2969
14.458749899999999,3167
14.4612499,2228
14.4637499,597
14.4662499,0
14.4687499,696
14.4712499,2215
14.4737499,3185
14.4762499,2987
14.4787499,1708
14.4812499,161
14.4837499,0
14.486249899999999,1227
14.4887499,2684
14.4912499,3213
14.4937499,2661
14.4962499,1121
14.4987499,0
14.5012499,251
14.503749899999999,1716
14.5062499,2984
14.5087499,3171
14.5112499,2212
14.5137499,559
14.5162499,0
14.5187499,691
14.521249899999999,2222
14.5237499,3190
14.5262499,2979
14.5287499,1683
14.5312499,127
14.5337499,0
14.5362499,1221
14.5387499,2671
14.5412499,3209
14.5437499,2586
14.5462499,1021
14.548749899999999,0
14.5512499,252
14.5537499,1722
14.5562499,2989
14.5587499,3167
14.5612499,2202
14.5637499,551
14.566249899999999,0
14.5687499,713
14.5712499,2242
14.5737499,3195
14.5762499,2972
14.5787499,1670
14.5812499,124
14.583749899999999,0
14.5862499,1234
14.5887499,2676
14.5912499,3209
14.5937499,2636
14.5962499,1097
14.5987499,0
14.6012499,275
14.6037499,1746
14.6062499,2993
14.6087499,3163
14.611249899999999,2197
14.6137499,563
14.6162499,0
14.6187499,731
14.6212499,2246
14.6237499,3185
14.6262499,2958
14.628749899999999,1664
14.6312499,135
14.6337499,0
14.6362499,1242
14.6387499,2658
14.6412499,3203
14.6437499,2623
14.646249899999999,1103
14.6487499,0
14.6512499,294
14.6537499,1754
14.6562499,2980
14.6587499,3148
14.6612499,2180
14.6637499,562
14.6662499,0
14.6687499,746
14.6712499,2241
14.673749899999999,3164
14.6762499,2940
14.6787499,1654
14.6812499,153
14.6837499,1
14.6862499,1253
14.6887499,2653
14.691249899999999,3196
14.6937499,2602
14.6962499,1090
14.6987499,0
14.7012499,304
14.7037499,1753
14.7062499,2960
14.708749899999999,3130
14.7112499,2162
14.7137499,557
14.7162499,0
14.7187499,755
14.7212499,2342
14.7237499,3171
14.7262499,2853
14.7287499,1511
14.7312499,151
14.7337499,6
14.736249899999999,1269
14.7387499,2665
14.7412499,3198
14.7437499,2603
14.7462499,1090
14.7487499,0
14.7512499,317
14.753749899999999,1766
14.7562499,2966
14.7587499,3130
14.7612499,2167
14.7637499,576
14.7662499,0
14.7687499,773
14.771249899999999,2249
14.7737499,3155
14.7762499,2927
14.7787499,1651
14.7812499,167
14.7837499,30
14.7862499,1285
14.7887499,2665
14.7912499,3190
14.7937499,2586
14.7962499,1082
14.798749899999999,0
14.8012499,327
14.8037499,1772
14.8062499,2956
14.8087499,3114
14.8112499,2144
14.8137499,604
14.816249899999999,0
14.8187499,826
14.8212499,2299
14.8237499,3174
14.8262499,2914
14.8287499,1624
14.8312499,146
14.833749899999999,30
14.8362499,1284
14.8387499,2657
14.8412499,3184
14.8437499,2568
14.8462499,1065
14.8487499,0
14.8512499,338
14.8537499,1785
14.8562499,2961
14.8587499,3109
14.861249899999999,2130
14.8637499,541
14.8662499,0
14.8687499,786
14.8712499,2252
14.8737499,3135
14.8762499,2890
14.878749899999999,1603
14.8812499,140
14.8837499,38
14.8862499,1293
14.8887499,2657
14.8912499,3175
14.8937499,2544
14.896249899999999,1034
14.8987499,0
14.9012499,344
14.9037499,1791
14.9062499,2960
14.9087499,3100
14.9112499,2107
14.9137499,525
14.9162499,-1
14.9187499,802
14.9212499,2265
14.923749899999999,3142
14.9262499,2890
14.9287499,1598
14.9312499,143
14.9337499,48
14.9362499,1305
14.9387499,2661
14.941249899999999,3171
14.9437499,2537
14.9462499,1039
14.9487499,0
14.9512499,359
14.9537499,1799
14.9562499,2956
14.958749899999999,3090
14.9612499,2106
14.9637499,528
14.9662499,0
14.9687499,813
14.9712499,2270
14.9737499,3130
14.9762499,2874
14.9787499,1585
14.9812499,141
14.9837499,54
14.986249899999999,1319
14.9887499,2665
14.9912499,3164
14.9937499,2528
14.9962499,1029
14.9987499,0
15.0012499,368
15.003749899999999,1807
15.0062499,2951
15.0087499,3080
15.0112499,2094
15.0137499,525
15.0162499,0
15.0187499,833
15.021249899999999,2280
15.0237499,3122
15.0262499,2860
15.0287499,1582
15.0312499,146
15.0337499,62
15.0362499,1334
15.0387499,2663
15.0412499,3150
15.0437499,2512
15.0462499,1018
15.048749899999999,0
15.0512499,385
15.0537499,1824
15.0562499,2950
15.0587499,3067
15.0612499,2083
15.0637499,525
15.066249899999999,0
15.0687499,836
15.0712499,2271
15.0737499,3105
15.0762499,2837
15.0787499,1556
15.0812499,128
15.083749899999999,37
15.0862499,1264
15.0887499,2586
15.0912499,3087
15.0937499,2465
15.0962499,989
15.0987499,0
15.1012499,396
15.1037499,1841
15.1062499,2961
15.1087499,3063
15.111249899999999,2065
15.1137499,501
15.1162499,0
15.1187499,844
15.1212499,2280
15.1237499,3111
15.1262499,2839
15.128749899999999,1553
15.1312499,130
15.1337499,75
15.1362499,1356
15.1387499,2679
15.1412499,3155
15.1437499,2500
15.146249899999999,997
15.1487499,0
15.1512499,406
15.1537499,1851
15.1562499,2974
15.1587499,3074
15.1612499,2068
15.1637499,505
15.1662499,0
15.1687499,987
15.1712499,2418
15.173749899999999,3159
15.1762499,2782
15.1787499,1550
15.1812499,125
15.1837499,80
15.1862499,1377
15.1887499,2710
15.191249899999999,3172
15.1937499,2507
15.1962499,992
15.1987499,0
15.2012499,415
15.2037499,1878
15.2062499,3001
15.208749899999999,3087
15.2112499,2067
15.2137499,494
15.2162499,0
15.2187499,884
15.2212499,2333
15.2237499,3148
15.2262499,2848
15.2287499,1533
15.2312499,114
15.2337499,85
15.236249899999999,1393
15.2387499,2723
15.2412499,3175
15.2437499,2504
15.2462499,987
15.2487499,0
15.2512499,433
15.253749899999999,1896
15.2562499,3009
15.2587499,3082
15.2612499,2057
15.2637499,489
15.2662499,0
15.2687499,900
15.271249899999999,2349
15.2737499,3158
15.2762499,2855
15.2787499,1538
15.2812499,122
15.2837499,96
15.2862499,1409
15.2887499,2726
15.2912499,3166
15.2937499,2484
15.2962499,968
15.298749899999999,0
15.3012499,438
15.3037499,1896
15.3062499,3003
15.3087499,3069
15.3112499,2043
15.3137499,485
15.316249899999999,0
15.3187499,915
15.3212499,2349
15.3237499,3143
15.3262499,2829
15.3287499,1517
15.3312499,119
15.333749899999999,107
15.3362499,1429
15.3387499,2740
15.3412499,3166
15.3437499,2478
15.3462499,968
15.3487499,0
15.3512499,454
15.3537499,1912
15.3562499,3050
15.3587499,3108
15.361249899999999,2083
15.3637499,518
15.3662499,0
15.3687499,924
15.3712499,2349
15.3737499,3132
15.3762499,2815
15.378749899999999,1509
15.3812499,125
15.3837499,112
15.3862499,1427
15.3887499,2721
15.3912499,3148
15.3937499,2468
15.396249899999999,965
15.3987499,0
15.4012499,468
15.4037499,1920
15.4062499,3000
15.4087499,3050
15.4112499,2025
15.4137499,485
15.4162499,0
15.4187499,947
15.4212499,2368
15.4237499,3140
15.4262499,2819
15.4287499,1475
15.4312499,133
15.4337499,122
15.4362499,1445
15.4387499,2732
15.441249899999999,3150
15.4437499,2465
15.4462499,963
15.4487499,0
15.4512499,483
15.4537499,1935
15.4562499,3001
15.458749899999999,3045
15.4612499,2022
15.4637499,486
15.4662499,0
15.4687499,957
15.4712499,2376
15.4737499,3138
15.4762499,2815
15.4787499,1506
15.4812499,133
15.4837499,130
15.4862499,1456
15.4887499,2742
15.4912499,3151
15.4937499,2457
15.4962499,949
15.4987499,0
15.5012499,485
15.503749899999999,1935
15.5062499,3000
15.5087499,3040
15.5112499,2010
15.5137499,478
15.5162499,0
15.5187499,966
15.521249899999999,2383
15.5237499,3137
15.5262499,2802
15.5287499,1487
15.5312499,120
15.5337499,138
15.5362499,1474
15.5387499,2755
15.5412499,3151
15.5437499,2444
15.5462499,932
15.5487499,0
15.5512499,494
15.5537499,1951
15.5562499,3011
15.5587499,3037
15.5612499,1993
15.5637499,460
15.566249899999999,0
15.5687499,978
15.5712499,2394
15.5737499,3140
15.5762499,2794
15.5787499,1461
15.5812499,99
15.583749899999999,135
15.5862499,1471
15.5887499,2748
15.5912499,3145
15.5937499,2434
15.5962499,921
15.5987499,0
15.6012499,502
15.6037499,1956
15.6062499,3011
15.6087499,3030
15.6112499,1978
15.6137499,446
15.6162499,0
15.6187499,1105
15.6212499,2499
15.6237499,3161
15.6262499,2744
15.628749899999999,1384
15.6312499,40
15.6337499,135
15.6362499,1479
15.6387499,2761
15.6412499,3153
15.6437499,2436
15.646249899999999,921
15.6487499,0
15.6512499,520
15.6537499,1980
15.6562499,3030
15.6587499,3038
15.6612499,1975
15.6637499,439
15.6662499,0
15.6687499,997
15.6712499,2418
15.6737499,3158
15.6762499,2792
15.6787499,1450
15.6812499,101
15.6837499,156
15.6862499,1513
15.6887499,2795
15.691249899999999,3169
15.6937499,2434
15.6962499,908
15.6987499,0
15.7012499,528
15.7037499,1991
15.7062499,3045
15.708749899999999,3045
15.7112499,1973
15.7137499,435
15.7162499,0
15.7187499,1015
15.7212499,2439
15.7237499,3171
15.7262499,2797
15.7287499,1445
15.7312499,99
15.7337499,162
15.7362499,1525
15.7387499,2806
15.7412499,3171
15.7437499,2428
15.7462499,892
15.7487499,0
15.7512499,536
15.753749899999999,2001
15.7562499,3048
15.7587499,3043
15.7612499,1961
15.7637499,427
15.7662499,0
15.7687499,1036
15.771249899999999,2462
15.7737499,3180
15.7762499,2790
15.7787499,1422
15.7812499,75
15.7837499,164
15.7862499,1529
15.7887499,2806
15.7912499,3163
15.7937499,2405
15.7962499,866
15.7987499,0
15.8012499,541
15.8037499,2004
15.8062499,3047
15.8087499,3029
15.8112499,1936
15.8137499,401
15.816249899999999,0
15.8187499,1028
15.8212499,2446
15.8237499,3163
15.8262499,2766
15.8287499,1397
15.8312499,64
15.833749899999999,170
15.8362499,1542
15.8387499,2815
15.8412499,3163
15.8437499,2391
15.8462499,847
15.8487499,0
15.8512499,547
15.8537499,2015
15.8562499,3058
15.8587499,3027
15.8612499,1923
15.8637499,388
15.8662499,0
15.8687499,1050
15.8712499,2471
15.8737499,3179
15.8762499,2777
15.878749899999999,1397
15.8812499,66
15.8837499,178
15.8862499,1556
15.8887499,2826
15.8912499,3163
15.8937499,2386
15.896249899999999,863
15.8987499,0
15.9012499,615
15.9037499,2097
15.9062499,3117
15.9087499,3047
15.9112499,1922
15.9137499,378
15.9162499,0
15.9187499,1057
15.9212499,2473
15.9237499,3172
15.9262499,2753
15.9287499,1361
15.9312499,38
15.9337499,182
15.9362499,1564
15.9387499,2839
15.941249899999999,3169
15.9437499,2379
15.9462499,826
15.9487499,0
15.9512499,580
15.9537499,2059
15.9562499,3088
15.958749899999999,3029
15.9612499,1899
15.9637499,360
15.9662499,0
15.9687499,1073
15.9712499,2495
15.9737499,3182
15.9762499,2755
15.9787499,1351
15.9812499,30
15.9837499,188
15.9862499,1577
15.9887499,2848
15.9912499,3167
15.9937499,2363
15.9962499,800
15.9987499,0
16.0012499,588
16.003749900000003,2068
16.0062499,3095
16.0087499,3029
16.011249900000003,1888
16.0137499,348
16.016249900000002,0
16.018749900000003,1086
16.0212499,2510
16.023749900000002,3187
16.0262499,2744
16.0287499,1327
16.031249900000002,16
16.0337499,193
16.0362499,1592
16.038749900000003,2868
16.0412499,3172
16.0437499,2354
16.046249900000003,781
16.0487499,0
16.051249900000002,596
16.053749900000003,2083
16.0562499,3103
16.058749900000002,3024
16.0612499,1865
16.0637499,325
16.066249900000003,0
16.0687499,1216
16.0712499,2616
16.073749900000003,3196
16.0762499,2745
16.078749900000002,1314
16.081249900000003,3
16.0837499,191
16.086249900000002,1592
16.0887499,2866
16.0912499,3167
16.093749900000002,2334
16.0962499,750
16.0987499,0
16.101249900000003,594
16.1037499,2080
16.1062499,3103
16.108749900000003,3016
16.1112499,1843
16.113749900000002,294
16.116249900000003,0
16.1187499,1100
16.121249900000002,2528
16.1237499,3193
16.1262499,2724
16.128749900000003,1282
16.1312499,0
16.1337499,199
16.136249900000003,1609
16.1387499,2876
16.141249900000002,3166
16.143749900000003,2321
16.1462499,737
16.148749900000002,0
16.1512499,613
16.1537499,2101
16.156249900000002,3113
16.1587499,3009
16.1612499,1828
16.163749900000003,288
16.1662499,0
16.1687499,1045
16.171249900000003,2463
16.1737499,3153
16.176249900000002,2695
16.178749900000003,1263
16.1812499,0
16.183749900000002,209
16.1862499,1617
16.1887499,2881
16.191249900000003,3161
16.1937499,2300
16.1962499,708
16.198749900000003,0
16.2012499,605
16.203749900000002,2093
16.206249900000003,3106
16.2087499,3001
16.211249900000002,1811
16.2137499,265
16.2162499,0
16.218749900000002,1113
16.2212499,2534
16.2237499,3185
16.226249900000003,2692
16.2287499,1239
16.2312499,0
16.233749900000003,204
16.2362499,1609
16.238749900000002,2864
16.241249900000003,3143
16.2437499,2273
16.246249900000002,679
16.2487499,0
16.2512499,610
16.253749900000003,2086
16.2562499,3080
16.2587499,2969
16.261249900000003,1772
16.2637499,233
16.266249900000002,0
16.268749900000003,1115
16.2712499,2533
16.273749900000002,3179
16.2762499,2673
16.2787499,1214
16.281249900000002,0
16.2837499,209
16.2862499,1614
16.288749900000003,2866
16.2912499,3140
16.2937499,2262
16.296249900000003,667
16.2987499,0
16.301249900000002,620
16.303749900000003,2097
16.3062499,3087
16.308749900000002,2963
16.3112499,1749
16.3137499,214
16.316249900000003,0
16.3187499,1119
16.3212499,2536
16.323749900000003,3179
16.3262499,2673
16.328749900000002,1210
16.331249900000003,0
16.3337499,219
16.336249900000002,1632
16.3387499,2882
16.3412499,3143
16.343749900000002,2255
16.3462499,662
16.3487499,0
16.351249900000003,631
16.3537499,2109
16.3562499,3093
16.358749900000003,2960
16.3612499,1745
16.363749900000002,209
16.366249900000003,0
16.3687499,1132
16.371249900000002,2541
16.3737499,3175
16.3762499,2663
16.378749900000003,1202
16.3812499,0
16.3837499,228
16.386249900000003,1646
16.3887499,2895
16.391249900000002,3150
16.393749900000003,2260
16.3962499,665
16.398749900000002,0
16.4012499,650
16.4037499,2136
16.406249900000002,3117
16.4087499,2976
16.4112499,1754
16.413749900000003,222
16.4162499,0
16.4187499,1156
16.421249900000003,2574
16.4237499,3193
16.426249900000002,2679
16.428749900000003,1205
16.4312499,0
16.433749900000002,232
16.4362499,1656
16.4387499,2951
16.441249900000003,3185
16.4437499,2312
16.4462499,700
16.448749900000003,0
16.4512499,654
16.453749900000002,2136
16.456249900000003,3117
16.4587499,2969
16.461249900000002,1741
16.4637499,212
16.4662499,0
16.468749900000002,1156
16.4712499,2568
16.4737499,3187
16.476249900000003,2660
16.4787499,1182
16.4812499,0
16.483749900000003,236
16.4862499,1659
16.488749900000002,2902
16.491249900000003,3145
16.4937499,2244
16.496249900000002,644
16.4987499,0
16.5012499,665
16.503749900000003,2149
16.5062499,3117
16.5087499,2961
16.511249900000003,1732
16.5137499,125
16.516249900000002,25
16.518749900000003,1290
16.5212499,2582
16.523749900000002,3190
16.5262499,2653
16.5287499,1171
16.531249900000002,0
16.5337499,251
16.5362499,1685
16.538749900000003,2926
16.5412499,3150
16.5437499,2231
16.546249900000003,630
16.5487499,0
16.551249900000002,681
16.553749900000003,2167
16.5562499,3132
16.558749900000002,2961
16.5612499,1719
16.5637499,193
16.566249900000003,0
16.5687499,1185
16.5712499,2599
16.573749900000003,3195
16.5762499,2653
16.578749900000002,1161
16.581249900000003,0
16.5837499,254
16.586249900000002,1685
16.5887499,2919
16.5912499,3140
16.593749900000002,2210
16.5962499,610
16.5987499,0
16.601249900000003,688
16.6037499,2173
16.6062499,3130
16.608749900000003,2958
16.6112499,1716
16.613749900000002,201
16.616249900000003,0
16.6187499,1203
16.621249900000002,2613
16.6237499,3196
16.6262499,2647
16.628749900000003,1152
16.6312499,0
16.6337499,265
16.636249900000003,1704
16.6387499,2934
16.641249900000002,3145
16.643749900000003,2210
16.6462499,604
16.648749900000002,0
16.6512499,696
16.6537499,2181
16.656249900000002,3134
16.6587499,2951
16.6612499,1695
16.663749900000003,177
16.6662499,0
16.6687499,1211
16.671249900000003,2620
16.6737499,3195
16.676249900000002,2632
16.678749900000003,1135
16.6812499,0
16.683749900000002,277
16.6862499,1717
16.6887499,2940
16.691249900000003,3138
16.6937499,2199
16.6962499,594
16.698749900000003,0
16.7012499,712
16.703749900000002,2201
16.706249900000003,3143
16.7087499,2914
16.711249900000002,1617
16.7137499,106
16.7162499,0
16.718749900000002,1214
16.7212499,2615
16.7237499,3192
16.726249900000003,2626
16.7287499,1129
16.7312499,0
16.733749900000003,281
16.7362499,1725
16.738749900000002,2950
16.741249900000003,3143
16.7437499,2199
16.746249900000002,596
16.7487499,0
16.7512499,728
16.753749900000003,2217
16.7562499,3148
16.7587499,2945
16.761249900000003,1682
16.7637499,175
16.766249900000002,0
16.768749900000003,1245
16.7712499,2645
16.773749900000002,3198
16.7762499,2624
16.7787499,1121
16.781249900000002,0
16.7837499,296
16.7862499,1743
16.788749900000003,2956
16.7912499,3137
16.7937499,2184
16.796249900000003,581
16.7987499,0
16.801249900000002,731
16.803749900000003,2212
16.8062499,3138
16.808749900000002,2932
16.8112499,1666
16.8137499,164
16.816249900000003,1
16.8187499,1245
16.8212499,2634
16.823749900000003,3192
16.8262499,2608
16.828749900000002,1103
16.831249900000003,0
16.8337499,294
16.836249900000002,1735
16.8387499,2937
16.8412499,3121
16.843749900000002,2164
16.8462499,563
16.8487499,0
16.851249900000003,733
16.8537499,2209
16.8562499,3126
16.858749900000003,2914
16.8612499,1645
16.863749900000002,145
16.866249900000003,0
16.8687499,1240
16.871249900000002,2624
16.8737499,3177
16.8762499,2578
16.878749900000003,1073
16.8812499,0
16.8837499,296
16.886249900000003,1735
16.8887499,2929
16.891249900000002,3105
16.893749900000003,2136
16.8962499,541
16.898749900000002,0
16.9012499,747
16.9037499,2220
16.906249900000002,3126
16.9087499,2902
16.9112499,1627
16.913749900000003,138
16.9162499,1
16.9187499,1247
16.921249900000003,2629
16.9237499,3179
16.926249900000002,2578
16.928749900000003,1069
16.9312499,0
16.933749900000002,310
16.9362499,1753
16.9387499,2942
16.941249900000003,3111
16.9437499,2139
16.9462499,544
16.948749900000003,0
16.9512499,758
16.953749900000002,2230
16.956249900000003,3137
16.9587499,2910
16.961249900000002,1500
16.9637499,67
16.9662499,77
16.968749900000002,1385
16.9712499,2649
16.9737499,3185
16.976249900000003,2573
16.9787499,1071
16.9812499,0
16.983749900000003,360
16.9862499,1825
16.988749900000002,3008
16.991249900000003,3135
16.9937499,2149
16.996249900000002,544
16.9987499,0
17.0012499,773
17.003749900000003,2255
17.0062499,3155
17.0087499,2918
17.011249900000003,1630
17.0137499,141
17.016249900000002,24
17.018749900000003,1287
17.0212499,2673
17.023749900000002,3193
17.0262499,2582
17.0287499,1061
17.031249900000002,0
17.0337499,331
17.0362499,1788
17.038749900000003,2974
17.0412499,3122
17.0437499,2138
17.046249900000003,539
17.0487499,0
17.051249900000002,796
17.053749900000003,2283
17.0562499,3172
17.058749900000002,2926
17.0612499,1633
17.0637499,146
17.066249900000003,33
17.0687499,1305
17.0712499,2687
17.073749900000003,3196
17.0762499,2589
17.078749900000002,1074
17.081249900000003,0
17.0837499,351
17.086249900000002,1811
17.088749900000003,2992
17.0912499,3126
17.093749900000002,2141
17.0962499,546
17.0987499,0
17.101249900000003,805
17.1037499,2284
17.1062499,3166
17.108749900000003,2918
17.1112499,1629
17.113749900000002,157
17.116249900000003,49
17.1187499,1324
17.121249900000002,2692
17.1237499,3192
17.1262499,2571
17.128749900000003,1065
17.1312499,0
17.1337499,362
17.136249900000003,1814
17.1387499,2966
17.141249900000002,3098
17.143749900000003,2123
17.1462499,560
17.148749900000002,0
17.151249900000003,820
17.1537499,2265
17.156249900000002,3117
17.1587499,2877
17.1612499,1629
17.163749900000003,206
17.1662499,74
17.1687499,1330
17.171249900000003,2636
17.1737499,3129
17.176249900000002,2541
17.178749900000003,1118
17.1812499,25
17.183749900000002,404
17.1862499,1795
17.1887499,2863
17.191249900000003,2993
17.1937499,2118
17.1962499,676
17.198749900000003,25
17.2012499,889
17.203749900000002,2212
17.206249900000003,2964
17.2087499,2758
17.211249900000002,1664
17.213749900000003,381
17.2162499,214
17.218749900000002,1356
17.2212499,2475
17.2237499,2885
17.226249900000003,2410
17.2287499,1192
17.2312499,232
17.233749900000003,562
17.2362499,1754
17.238749900000002,2620
17.241249900000003,2723
17.2437499,2031
17.246249900000002,807
17.2487499,243
17.2512499,941
17.253749900000003,2012
17.2562499,2626
17.2587499,2499
17.261249900000003,1629
17.2637499,534
17.266249900000002,399
17.268749900000003,1414
17.2712499,2359
17.273749900000002,2699
17.276249900000003,2305
17.2787499,1229
17.281249900000002,357
17.2837499,683
17.2862499,1791
17.288749900000003,2586
17.2912499,2682
17.2937499,2025
17.296249900000003,844
17.2987499,301
17.301249900000002,1045
17.303749900000003,2135
17.3062499,2739
17.308749900000002,2578
17.3112499,1653
17.3137499,523
17.316249900000003,386
17.3187499,1437
17.3212499,2431
17.323749900000003,2790
17.3262499,2354
17.328749900000002,1210
17.331249900000003,307
17.3337499,649
17.336249900000002,1811
17.338749900000003,2657
17.3412499,2753
17.343749900000002,2039
17.3462499,804
17.3487499,249
17.351249900000003,1031
17.3537499,2167
17.3562499,2798
17.358749900000003,2610
17.3612499,1637
17.363749900000002,468
17.366249900000003,346
17.3687499,1438
17.371249900000002,2476
17.3737499,2848
17.3762499,2379
17.378749900000003,1189
17.3812499,265
17.3837499,628
17.386249900000003,1832
17.3887499,2708
17.391249900000002,2800
17.393749900000003,2046
17.3962499,765
17.398749900000002,206
17.401249900000003,1023
17.4037499,2207
17.406249900000002,2863
17.4087499,2663
17.4112499,1635
17.413749900000003,427
17.4162499,359
17.4187499,1535
17.421249900000003,2582
17.4237499,2911
17.426249900000002,2412
17.428749900000003,1165
17.4312499,211
17.433749900000002,592
17.4362499,1846
17.4387499,2765
17.441249900000003,2852
17.4437499,2044
17.4462499,707
17.448749900000003,132
17.4512499,992
17.453749900000002,2239
17.456249900000003,2927
17.4587499,2710
17.461249900000002,1627
17.463749900000003,372
17.4662499,254
17.468749900000002,1438
17.4712499,2576
17.4737499,2971
17.476249900000003,2429
17.4787499,1123
17.4812499,141
17.483749900000003,551
17.4862499,1864
17.488749900000002,2829
17.491249900000003,2914
17.4937499,2060
17.496249900000002,668
17.4987499,77
17.5012499,971
17.503749900000003,2265
17.5062499,2980
17.5087499,2742
17.511249900000003,1604
17.5137499,320
17.516249900000002,209
17.518749900000003,1430
17.5212499,2636
17.523749900000002,3085
17.526249900000003,2518
17.5287499,1147
17.531249900000002,117
17.5337499,523
17.5362499,1856
17.538749900000003,2840
17.5412499,2926
17.5437499,2052
17.546249900000003,647
17.5487499,62
17.551249900000002,973
17.553749900000003,2281
17.5562499,2995
17.558749900000002,2748
17.5612499,1593
17.5637499,302
17.566249900000003,203
17.5687499,1440
17.5712499,2623
17.573749900000003,3029
17.5762499,2449
17.578749900000002,1087
17.581249900000003,91
17.5837499,533
17.586249900000002,1886
17.588749900000003,2874
