# Time (seconds),Voltage
0.0012499,505.8000183105469
0.0037499,618.8400268554688
0.0062499,495.072021484375
0.0087499,451.0576171875
0.0112499,696.24609375
0.0137499,1128.596923828125
0.016249899999999998,1513.07763671875
0.0187499,1634.0621337890625
0.021249900000000002,1418.6497802734375
0.023749899999999997,1134.9197998046875
0.0262499,1050.535888671875
0.028749900000000002,1272.4287109375
0.031249899999999997,1630.14306640625
0.0337499,1875.714599609375
0.0362499,1822.771728515625
0.0387499,1488.0174560546875
0.0412499,1190.4139404296875
0.0437499,1195.5311279296875
0.0462499,1471.224853515625
0.0487499,1802.9798583984375
0.0512499,1950.783935546875
0.053749899999999996,1772.8271484375
0.0562499,1418.26171875
0.0587499,1192.609375
0.061249899999999996,1294.28759765625
0.0637499,1610.630126953125
0.0662499,1898.7041015625
0.0687499,1939.163330078125
0.0712499,1634.730712890625
0.0737499,1307.7845458984375
0.0762499,1192.82763671875
0.0787499,1389.8621826171875
0.0812499,1726.689697265625
0.0837499,1953.351806640625
0.0862499,1883.281494140625
0.0887499,1535.625244140625
0.0912499,1229.1002197265625
0.0937499,1230.2802734375
0.0962499,1501.024169921875
0.0987499,1825.619384765625
0.1012499,1965.2955322265625
0.1037499,1780.636474609375
0.1062499,1424.5091552734375
0.1087499,1201.00732421875
0.1112499,1305.205810546875
0.1137499,1621.964599609375
0.1162499,1909.171630859375
0.1187499,1946.1373291015625
0.1212499,1662.10986328125
0.1237499,1329.6878662109375
0.1262499,1213.150390625
0.1287499,1408.120361328125
0.1312499,1739.8963623046875
0.1337499,1959.9171142578125
0.1362499,1883.333740234375
0.1387499,1531.6669921875
0.1412499,1226.93359375
0.1437499,1229.9468994140625
0.1462499,1501.157470703125
0.1487499,1823.526123046875
0.1512499,1958.8209228515625
0.1537499,1770.65673828125
0.1562499,1416.525390625
0.1587499,1197.620361328125
0.1612499,1306.0963134765625
0.1637499,1623.47705078125
0.1662499,1907.381591796875
0.1687499,1939.5052490234375
0.1712499,1652.604248046875
0.1737499,1322.0833740234375
0.17624990000000001,1209.666748046875
0.1787499,1407.1334228515625
0.1812499,1742.706787109375
0.1837499,1946.1654052734375
0.1862499,1850.3323974609375
0.1887499,1503.4659423828125
0.1912499,1213.9727783203125
0.1937499,1231.378173828125
0.1962499,1511.902587890625
0.1987499,1836.5220947265625
0.2012499,1969.61767578125
0.2037499,1776.6942138671875
0.2062499,1421.3553466796875
0.20874990000000002,1203.2843017578125
0.2112499,1311.827392578125
0.2137499,1627.4619140625
0.2162499,1907.76953125
0.2187499,1935.815673828125
0.2212499,1646.2525634765625
0.2237499,1317.0020751953125
0.2262499,1208.8016357421875
0.2287499,1408.84130859375
0.2312499,1739.673095703125
0.2337499,1953.738525390625
0.2362499,1869.9908447265625
0.23874990000000001,1517.192626953125
0.2412499,1221.754150390625
0.2437499,1233.203369140625
0.2462499,1508.562744140625
0.2487499,1830.05029296875
0.2512499,1959.6402587890625
0.25374990000000003,1763.5123291015625
0.25624990000000003,1410.8099365234375
0.25874990000000003,1197.2479248046875
0.26124990000000003,1309.598388671875
0.26374990000000004,1626.27880859375
0.26624990000000004,1904.623046875
0.26874990000000004,1928.698486328125
0.27124990000000004,1636.35888671875
0.27374990000000005,1309.087158203125
0.27624990000000005,1204.6697998046875
0.27874990000000005,1406.3358154296875
0.28124990000000005,1736.0687255859375
0.28374990000000005,1947.2550048828125
0.28624990000000006,1859.404052734375
0.28874990000000006,1505.123291015625
0.2912499,1213.898681640625
0.2937499,1230.118896484375
0.2962499,1508.09521484375
0.2987499,1828.276123046875
0.3012499,1955.02099609375
0.3037499,1756.6168212890625
0.3062499,1405.29345703125
0.3087499,1196.634765625
0.3112499,1314.5078125
0.3137499,1634.206298828125
0.31624990000000003,1911.565185546875
0.31874990000000003,1933.05224609375
0.32124990000000003,1639.2418212890625
0.32374990000000003,1311.3934326171875
0.32624990000000004,1212.7147216796875
0.32874990000000004,1419.371826171875
0.33124990000000004,1749.29736328125
0.33374990000000004,1957.23779296875
0.33624990000000005,1864.790283203125
0.33874990000000005,1507.832275390625
0.34124990000000005,1217.4658203125
0.34374990000000005,1236.772705078125
0.34624990000000005,1515.818115234375
0.34874990000000006,1834.45458984375
0.35124990000000006,1957.9637451171875
0.3537499,1756.3709716796875
0.3562499,1405.0968017578125
0.3587499,1200.2774658203125
0.3612499,1321.02197265625
0.3637499,1640.61767578125
0.3662499,1915.294189453125
0.3687499,1932.435302734375
0.3712499,1636.3482666015625
0.3737499,1309.07861328125
0.3762499,1214.06298828125
0.37874990000000003,1423.25048828125
0.38124990000000003,1753.400390625
0.38374990000000003,1958.92041015625
0.38624990000000003,1862.9364013671875
0.38874990000000004,1505.34912109375
0.39124990000000004,1217.479248046875
0.39374990000000004,1240.783447265625
0.39624990000000004,1520.02685546875
0.39874990000000005,1834.62158203125
0.40124990000000005,1952.2972412109375
0.40374990000000005,1745.8377685546875
0.40624990000000005,1396.6702880859375
0.40874990000000005,1195.5362548828125
0.41124990000000006,1319.22900390625
0.41374990000000006,1637.983154296875
0.41624990000000006,1908.3865966796875
0.4187499,1921.109375
0.4212499,1623.487548828125
0.4237499,1298.7900390625
0.4262499,1209.43212890625
0.4287499,1422.145751953125
0.4312499,1753.11669921875
0.4337499,1956.093505859375
0.4362499,1856.6749267578125
0.4387499,1499.739990234375
0.44124990000000003,1215.1920166015625
0.44374990000000003,1242.753662109375
0.44624990000000003,1525.202880859375
0.44874990000000003,1840.3623046875
0.45124990000000004,1956.2899169921875
0.45374990000000004,1748.6319580078125
0.45624990000000004,1398.9056396484375
0.45874990000000004,1191.12451171875
0.46124990000000005,1306.6995849609375
0.46374990000000005,1620.559814453125
0.46624990000000005,1889.64794921875
0.46874990000000005,1903.91845703125
0.47124990000000005,1610.334716796875
0.47374990000000006,1288.267822265625
0.47624990000000006,1207.2142333984375
0.47874990000000006,1427.17138671875
0.4812499,1761.337158203125
0.4837499,1964.86962890625
0.4862499,1863.4957275390625
0.4887499,1504.5966796875
0.4912499,1220.6773681640625
0.4937499,1250.94189453125
0.4962499,1534.353515625
0.4987499,1847.682861328125
0.5012499,1959.746337890625
0.5037499000000001,1747.59716796875
0.5062499,1398.0777587890625
0.5087499000000001,1203.062255859375
0.5112499,1334.2498779296875
0.5137499,1656.39990234375
0.5162499,1925.320068359375
0.5187499,1932.05615234375
0.5212499,1629.244873046875
0.5237499,1303.3958740234375
0.5262499,1221.11669921875
0.5287499,1439.493408203125
0.5312499,1769.9947509765625
0.5337499,1967.595947265625
0.5362499000000001,1860.8768310546875
0.5387499,1501.5015869140625
0.5412499000000001,1220.4012451171875
0.5437499,1254.321044921875
0.5462499000000001,1539.85693359375
0.5487499,1853.085693359375
0.5512499000000001,1962.2686767578125
0.5537499,1746.014892578125
0.5562499000000001,1396.8118896484375
0.5587499,1205.6495361328125
0.5612499000000001,1340.11962890625
0.5637499,1662.295654296875
0.5662499000000001,1927.636474609375
0.5687499,1929.1092529296875
0.5712499000000001,1623.4874267578125
0.5737499,1298.7899169921875
0.5762499000000001,1221.4320068359375
0.5787499,1443.1456298828125
0.5812499,1773.91650390625
0.5837499,1968.733154296875
0.5862499,1857.78662109375
0.5887499,1496.829345703125
0.5912499,1218.2635498046875
0.5937499,1255.61083984375
0.5962499,1542.48876953125
0.5987499000000001,1853.9910888671875
0.6012499,1959.392822265625
0.6037499000000001,1740.5142822265625
0.6062499,1392.4114990234375
0.6087499000000001,1205.729248046875
0.6112499,1343.783447265625
0.6137499000000001,1667.0267333984375
0.6162499,1930.42138671875
0.6187499000000001,1928.337158203125
0.6212499,1620.4698486328125
0.6237499000000001,1296.3758544921875
0.6262499,1223.3006591796875
0.6287499000000001,1448.04052734375
0.6312499,1779.032470703125
0.6337499000000001,1971.2259521484375
0.6362499,1854.9808349609375
0.6387499000000001,1491.9847412109375
0.6412499,1230.187744140625
0.6437499,1292.750244140625
0.6462499,1590.400146484375
0.6487499,1889.920166015625
0.6512499,1986.13623046875
0.6537499,1758.30908203125
0.6562499,1406.6473388671875
0.6587499,1221.31787109375
0.6612499000000001,1361.454345703125
0.6637499,1683.5634765625
0.6662499000000001,1942.65087890625
0.6687499,1933.720703125
0.6712499000000001,1620.5765380859375
0.6737499,1296.4613037109375
0.6762499000000001,1226.9691162109375
0.6787499,1452.3753662109375
0.6812499000000001,1780.500244140625
0.6837499,1968.2001953125
0.6862499000000001,1848.3602294921875
0.6887499,1485.2882080078125
0.6912499000000001,1214.2305908203125
0.6937499,1262.58447265625
0.6962499000000001,1556.467529296875
0.6987499,1866.174072265625
0.7012499000000001,1963.33935546875
0.7037499,1733.8714599609375
0.7062499,1387.09716796875
0.7087499,1206.877685546875
0.7112499,1351.502197265625
0.7137499,1676.001708984375
0.7162499,1936.00146484375
0.7187499,1927.001220703125
0.7212499,1613.4010009765625
0.7237499000000001,1290.7208251953125
0.7262499,1226.776611328125
0.7287499000000001,1468.0213623046875
0.7312499,1808.817138671875
0.7337499000000001,2001.65380859375
0.7362499,1879.72314453125
0.7387499000000001,1511.1785888671875
0.7412499,1235.94287109375
0.7437499000000001,1281.5543212890625
0.7462499,1571.6435546875
0.7487499000000001,1876.914794921875
0.7512499,1968.1318359375
0.7537499000000001,1733.7054443359375
0.7562499,1386.96435546875
0.7587499000000001,1211.571533203125
0.7612499,1360.0572509765625
0.7637499000000001,1684.845703125
0.7662499,1939.4765625
0.7687499000000001,1921.78125
0.7712499,1604.0250244140625
0.7737499,1283.2200927734375
0.7762499,1225.5760498046875
0.7787499,1460.4609375
0.7812499,1791.168701171875
0.7837499,1974.3349609375
0.7862499000000001,1845.26806640625
0.7887499,1478.0145263671875
0.7912499000000001,1211.41162109375
0.7937499,1266.12939453125
0.7962499000000001,1562.5035400390625
0.7987499,1870.602783203125
0.8012499000000001,1960.4822998046875
0.8037499,1723.98583984375
0.8062499000000001,1379.188720703125
0.8087499,1206.950927734375
0.8112499000000001,1358.3607177734375
0.8137499,1685.088623046875
0.8162499000000001,1939.27099609375
0.8187499,1919.016845703125
0.8212499000000001,1597.2135009765625
0.8237499,1277.7708740234375
0.8262499000000001,1223.61669921875
0.8287499,1462.493408203125
0.8312499000000001,1794.394775390625
0.8337499,1974.515869140625
0.8362499,1840.212646484375
0.8387499,1472.7701416015625
0.8412499,1209.4161376953125
0.8437499,1269.3328857421875
0.8462499,1570.06640625
0.8487499000000001,1877.85302734375
0.8512499,1963.282470703125
0.8537499000000001,1721.0260009765625
0.8562499,1376.82080078125
0.8587499000000001,1207.6566162109375
0.8612499,1361.725341796875
0.8637499000000001,1689.580322265625
0.8662499,1941.8642578125
0.8687499000000001,1916.491455078125
0.8712499,1591.793212890625
0.8737499000000001,1273.4345703125
0.8762499,1223.34765625
0.8787499000000001,1464.4781494140625
0.8812499,1795.782470703125
0.8837499000000001,1972.825927734375
0.8862499,1834.460693359375
0.8887499000000001,1467.7685546875
0.8912499,1208.21484375
0.8937499000000001,1274.5718994140625
0.8962499,1577.657470703125
0.8987499,1883.72607421875
0.9012499,1964.7808837890625
0.9037499,1719.024658203125
0.9062499,1375.2197265625
0.9087499,1210.975830078125
0.9112499000000001,1369.980712890625
0.9137499,1698.78466796875
0.9162499000000001,1949.227783203125
0.9187499,1920.1822509765625
0.9212499000000001,1593.1458740234375
0.9237499,1274.5167236328125
0.9262499000000001,1229.013427734375
0.9287499,1473.210693359375
0.9312499000000001,1804.568603515625
0.9337499,1978.2548828125
0.9362499000000001,1834.6038818359375
0.9387499,1467.68310546875
0.9412499000000001,1209.146484375
0.9437499,1276.5172119140625
0.9462499000000001,1580.2138671875
0.9487499,1885.37109375
0.9512499000000001,1963.296875
0.9537499,1714.8375244140625
0.9562499000000001,1371.8699951171875
0.9587499,1212.095947265625
0.9612499,1374.6767578125
0.9637499,1705.1414794921875
0.9662499,1953.713134765625
0.9687499,1920.170654296875
0.9712499,1590.736572265625
0.9737499000000001,1272.5892333984375
0.9762499,1231.2713623046875
0.9787499000000001,1479.01708984375
0.9812499,1810.2137451171875
0.9837499000000001,1981.1710205078125
0.9862499,1833.9368896484375
0.9887499000000001,1467.1495361328125
0.9912499,1212.319580078125
0.9937499000000001,1283.6556396484375
0.9962499,1588.524658203125
0.9987499000000001,1883.419677734375
1.0012499,1944.335693359375
1.0037498999999999,1682.6685791015625
1.0062499,1346.1348876953125
1.0087499,1193.7080078125
1.0112499,1361.9664306640625
1.0137498999999999,1694.773193359375
1.0162499,1942.2186279296875
1.0187499,1906.974853515625
1.0212499,1578.3800048828125
1.0237498999999999,1262.7039794921875
1.0262498999999998,1227.3631591796875
1.0287499,1477.090576171875
1.0312499,1806.87255859375
1.0337498999999999,1972.8980712890625
1.0362498999999998,1821.1185302734375
1.0387499,1456.8948974609375
1.0412499,1206.3160400390625
1.0437499,1282.0528564453125
1.0462498999999998,1588.642333984375
1.0487499,1889.31396484375
1.0512499,1958.0511474609375
1.0537499,1700.44091796875
1.0562498999999999,1360.352783203125
1.0587499,1210.8822021484375
1.0612499,1382.705810546875
1.0637499,1715.1646728515625
1.0662498999999999,1958.53173828125
1.0687499,1916.4254150390625
1.0712499,1581.7403564453125
1.0737499,1265.392333984375
1.0762498999999999,1233.9139404296875
1.0787499,1485.93115234375
1.0812499,1815.14501953125
1.0837499,1977.916015625
1.0862498999999999,1821.3328857421875
1.0887499,1457.0662841796875
1.0912499,1209.0531005859375
1.0937499,1287.4425048828125
1.0962498999999999,1594.553955078125
1.0987498999999998,1892.443115234375
1.1012499,1935.154541015625
1.1037499,1656.9237060546875
1.1062499,1325.5389404296875
1.1087498999999998,1207.631103515625
1.1112499,1381.5048828125
1.1137499,1713.2039794921875
1.1162499,1954.163330078125
1.1187498999999999,1908.9306640625
1.1212499,1574.14453125
1.1237499,1259.315673828125
1.1262499,1232.2525634765625
1.1287498999999999,1487.2020263671875
1.1312499,1815.7615966796875
1.1337499,1975.809326171875
1.1362499,1816.447509765625
1.1387498999999999,1453.1580810546875
1.1412499,1210.7264404296875
1.1437499,1296.78125
1.1462499,1608.425048828125
1.1487498999999999,1906.340087890625
1.1512499,1965.8721923828125
1.1537499,1699.897705078125
1.1562499,1359.918212890625
1.1587498999999999,1217.3345947265625
1.1612498999999998,1394.067626953125
1.1637499,1726.854248046875
1.1662499,1964.283447265625
1.1687499,1913.0267333984375
1.1712498999999998,1573.8214111328125
1.1737499,1259.05712890625
1.1762499,1236.2457275390625
1.1787499,1494.796630859375
1.1812498999999999,1824.437255859375
1.1837499,1982.5498046875
1.1862499,1818.0399169921875
1.1887499,1454.4320068359375
1.1912498999999999,1211.74560546875
1.1937499,1296.7965087890625
1.1962499,1606.8372802734375
1.1987499,1902.4698486328125
1.2012498999999999,1959.7760009765625
1.2037499,1693.020751953125
1.2062499,1354.4166259765625
1.2087499,1216.5333251953125
1.2112498999999999,1396.82666015625
1.2137499,1729.661376953125
1.2162499,1965.7291259765625
1.2187499,1911.183349609375
1.2212498999999999,1569.546630859375
1.2237498999999998,1255.6373291015625
1.2262499,1237.10986328125
1.2287499,1497.887939453125
1.2312499,1825.910400390625
1.2337498999999998,1980.5283203125
1.2362499,1812.4227294921875
1.2387499,1449.938232421875
1.2412499,1211.1505126953125
1.2437498999999999,1300.720458984375
1.2462499,1613.37646484375
1.2487499,1908.1011962890625
1.2512499,1962.0809326171875
1.2537498999999999,1692.664794921875
1.2562499,1354.1318359375
1.2587499,1220.5054931640625
1.2612499,1404.2044677734375
1.2637498999999999,1736.763671875
1.2662499,1967.81103515625
1.2687499,1909.0489501953125
1.2712499,1575.839111328125
1.2737498999999999,1261.4713134765625
1.2762499,1252.97705078125
1.2787499,1521.381591796875
1.2812499,1850.50537109375
1.2837498999999999,1999.8043212890625
1.2862498999999998,1823.4434814453125
1.2887499,1458.7547607421875
1.2912499,1219.40380859375
1.2937499,1309.5230712890625
1.2962498999999998,1622.218505859375
1.2987499,1913.7747802734375
1.3012499,1962.0198974609375
1.3037499,1686.81591796875
1.3062498999999999,1349.4527587890625
1.3087499,1218.3623046875
1.3112499,1404.08984375
1.3137499,1737.471923828125
1.3162498999999999,1967.777587890625
1.3187499,1904.2220458984375
1.3212499,1558.377685546875
1.3237499,1246.7021484375
1.3262498999999999,1236.36181640625
1.3287499,1502.28955078125
1.3312499,1830.231689453125
1.3337499,1978.785400390625
1.3362498999999999,1803.0283203125
1.3387499,1442.4227294921875
1.3412499,1209.938232421875
1.3437499,1306.150634765625
1.3462498999999999,1621.12060546875
1.3487498999999998,1912.2965087890625
1.3512499,1958.437255859375
1.3537499,1681.14990234375
1.3562499,1344.919921875
1.3587498999999998,1219.9359130859375
1.3612499,1409.94873046875
1.3637499,1743.759033203125
1.3662499,1970.4072265625
1.3687498999999999,1901.725830078125
1.3712499,1552.78076171875
1.3737499,1242.224609375
1.3762499,1236.3797607421875
1.3787498999999999,1504.703857421875
1.3812499,1831.363037109375
1.3837499,1975.6904296875
1.3862499,1796.7523193359375
1.3887498999999999,1437.40185546875
1.3912499,1208.521484375
1.3937499,1308.417236328125
1.3962499,1624.53369140625
1.3987498999999999,1913.826904296875
1.4012499,1955.0615234375
1.4037499,1674.44921875
1.4062499,1339.5594482421875
1.4087498999999999,1217.8475341796875
1.4112498999999998,1410.8780517578125
1.4137499,1745.50244140625
1.4162499,1970.201904296875
1.4187499,1898.5615234375
1.4212498999999998,1548.44921875
1.4237499,1238.9593505859375
1.4262499,1236.967529296875
1.4287499,1506.3740234375
1.4312498999999999,1831.499267578125
1.4337499,1971.99951171875
1.4362499,1787.9996337890625
1.4387499,1430.3997802734375
1.4412498999999999,1206.31982421875
1.4437499,1312.055908203125
1.4462499,1630.8447265625
1.4487499,1918.875732421875
1.4512498999999999,1956.5006103515625
1.4537499,1673.0006103515625
1.4562499,1338.4005126953125
1.4587499,1220.1204833984375
1.4612498999999999,1414.6964111328125
1.4637499,1748.55712890625
1.4662499,1971.645751953125
1.4687499,1897.5166015625
1.4712498999999999,1547.2132568359375
1.4737498999999998,1242.170654296875
1.4762499,1245.736572265625
1.4787499,1519.789306640625
1.4812499,1845.031494140625
1.4837498999999998,1982.625244140625
1.4862499,1795.1002197265625
1.4887499,1436.0802001953125
1.4912499,1214.26416015625
1.4937498999999999,1322.611328125
1.4962499,1641.689208984375
1.4987499,1926.551513671875
1.5012499,1958.8411865234375
1.5037498999999999,1670.072998046875
1.5062499,1336.0584716796875
1.5087499,1221.44677734375
1.5112499,1418.157470703125
1.5137498999999999,1750.5260009765625
1.5162499,1969.4207763671875
1.5187499,1889.9366455078125
1.5212499,1537.9493408203125
1.5237498999999999,1238.5594482421875
1.5262499,1247.24755859375
1.5287499,1523.5980224609375
1.5312499,1848.078369140625
1.5337498999999999,1981.662841796875
1.5362499,1789.5302734375
1.5387499,1431.624267578125
1.5412499,1203.8994140625
1.5437499,1302.9195556640625
1.5462498999999998,1615.1357421875
1.5487499,1896.90869140625
1.5512499,1929.3270263671875
1.5537499,1643.8616943359375
1.5562498999999999,1315.08935546875
1.5587499,1212.071533203125
1.5612499,1419.457275390625
1.5637499,1761.5657958984375
1.5662498999999999,1965.6527099609375
1.5687499,1859.322265625
1.5712499,1497.6578369140625
1.5737499,1207.3262939453125
1.5762498999999999,1224.4610595703125
1.5787499,1507.368896484375
1.5812499,1835.09521484375
1.5837499,1970.076171875
1.5862498999999999,1778.0609130859375
1.5887499,1422.44873046875
1.5912499,1208.3590087890625
1.5937499,1323.88720703125
1.5962498999999999,1645.90966796875
1.5987499,1929.52783203125
1.6012499,1957.622314453125
1.6037499,1667.097900390625
1.6062499,1333.6783447265625
1.6087498999999998,1229.9427490234375
1.6112499,1436.55419921875
1.6137499,1772.443359375
1.6162499,1986.9547119140625
1.6187498999999999,1899.163818359375
1.6212499,1541.7310791015625
1.6237499,1243.98486328125
1.6262499,1257.18798828125
1.6287498999999999,1535.75048828125
1.6312499,1857.6004638671875
1.6337499,1983.48046875
1.6362499,1782.3843994140625
1.6387498999999999,1425.9075927734375
1.6412499,1214.72607421875
1.6437499,1333.5809326171875
1.6462499,1655.86474609375
1.6487498999999999,1935.6917724609375
1.6512499,1957.75341796875
1.6537499,1662.802734375
1.6562499,1330.2421875
1.6587498999999999,1229.9937744140625
1.6612499,1438.9951171875
1.6637499,1773.796142578125
1.6662499,1984.237060546875
1.6687499,1890.189697265625
1.6712498999999998,1530.3516845703125
1.6737499,1236.0814208984375
1.6762499,1254.6651611328125
1.6787499,1536.3321533203125
1.6812498999999999,1857.665771484375
1.6837499,1981.332763671875
1.6862499,1777.2662353515625
1.6887499,1421.81298828125
1.6912498999999999,1212.8504638671875
1.6937499,1332.48046875
1.6962499,1653.984375
1.6987499,1931.78759765625
1.7012498999999999,1950.4300537109375
1.7037499,1652.744140625
1.7062499,1322.1953125
1.7087499,1227.5562744140625
1.7112498999999999,1440.8450927734375
1.7137499,1775.876220703125
1.7162499,1983.7010498046875
1.7187499,1886.160888671875
1.7212498999999999,1524.5286865234375
1.7237499,1233.02294921875
1.7262499,1255.0184326171875
1.7287499,1538.21484375
1.7312499,1857.5718994140625
1.7337498999999998,1977.0574951171875
1.7362499,1768.845947265625
1.7387499,1415.0767822265625
1.7412499,1211.2613525390625
1.7437498999999999,1336.2091064453125
1.7462499,1660.5673828125
1.7487499,1936.4539794921875
1.7512499,1949.9632568359375
1.7537498999999999,1648.7706298828125
1.7562499,1319.0164794921875
1.7587499,1229.4132080078125
1.7612499,1446.530517578125
1.7637498999999999,1782.62451171875
1.7662499,1989.099609375
1.7687499,1888.2796630859375
1.7712499,1526.0238037109375
1.7737498999999999,1236.4190673828125
1.7762499,1263.5352783203125
1.7787499,1549.628173828125
1.7812499,1868.7025146484375
1.7837498999999999,1984.7620849609375
1.7862499,1772.40966796875
1.7887499,1417.927734375
1.7912499,1216.3421630859375
1.7937499,1344.4737548828125
1.7962498999999998,1669.178955078125
1.7987499,1942.7431640625
1.8012499,1953.39453125
1.8037499,1650.9156494140625
1.8062498999999999,1320.7325439453125
1.8087499,1232.3861083984375
1.8112499,1455.10888671875
1.8137499,1799.4871826171875
1.8162498999999999,2010.789794921875
1.8187499,1911.431884765625
1.8212499,1548.945556640625
1.8237499,1256.7564697265625
1.8262498999999999,1282.80517578125
1.8287499,1566.84423828125
1.8312499,1881.87548828125
1.8337499,1992.3004150390625
1.8362498999999999,1775.4403076171875
1.8387499,1420.352294921875
1.8412499,1221.8818359375
1.8437499,1353.10546875
1.8462498999999999,1678.284423828125
1.8487499,1949.027587890625
1.8512499,1954.6220703125
1.8537499,1647.09765625
1.8562499,1317.6781005859375
1.8587498999999998,1233.1424560546875
1.8612499,1453.31396484375
1.8637499,1787.851318359375
1.8662499,1987.68115234375
1.8687498999999999,1878.1448974609375
1.8712499,1513.115966796875
1.8737499,1229.6927490234375
1.8762499,1264.354248046875
1.8787498999999999,1553.683349609375
1.8812499,1870.546630859375
1.8837499,1980.4373779296875
1.8862499,1762.1500244140625
1.8887498999999999,1409.7200927734375
1.8912499,1216.576171875
1.8937499,1351.4609375
1.8962499,1676.96875
1.8987498999999999,1945.175048828125
1.9012499,1946.5400390625
1.9037499,1637.4320068359375
1.9062499,1309.9456787109375
1.9087498999999999,1230.3565673828125
1.9112499,1453.0853271484375
1.9137499,1786.268310546875
1.9162499,1982.61474609375
1.9187499,1869.4918212890625
1.9212498999999998,1504.1934814453125
1.9237499,1223.954833984375
1.9262499,1262.9638671875
1.9287499,1554.171142578125
1.9312498999999999,1870.3369140625
1.9337499,1977.069580078125
1.9362499,1754.6556396484375
1.9387499,1403.7244873046875
1.9412498999999999,1214.379638671875
1.9437499,1353.3037109375
1.9462499,1680.44287109375
1.9487499,1947.154296875
1.9512498999999999,1944.323486328125
1.9537499,1631.4588623046875
1.9562499,1305.1671142578125
1.9587499,1229.3336181640625
1.9612498999999999,1455.2669677734375
1.9637499,1788.6136474609375
1.9662499,1981.8909912109375
1.9687499,1863.912841796875
1.9712498999999999,1497.1302490234375
1.9737499,1220.5042724609375
1.9762499,1264.803466796875
1.9787499,1559.8427734375
1.9812499,1874.874267578125
1.9837499,1976.699462890625
1.9862499,1749.15966796875
1.9887499,1399.3277587890625
1.9912499,1214.6622314453125
1.9937498999999999,1358.1297607421875
1.9962499,1686.5037841796875
1.9987499,1951.0029296875
2.0012499,1944.6024169921875
2.0037499,1630.08203125
2.0062499,1304.065673828125
2.0087498999999998,1234.2525634765625
2.0112499,1464.0020751953125
2.0137499,1798.001708984375
2.0162499,1989.4013671875
2.0187499,1867.5211181640625
2.0212499,1494.0169677734375
2.0237499,1234.013671875
2.0262499,1302.2109375
2.0287498999999998,1605.56884765625
2.0312499,1911.455078125
2.0337499,2003.1640625
2.0362499,1767.1312255859375
2.0387499,1413.7049560546875
2.0412499,1227.1639404296875
2.0437499,1368.731201171875
2.0462499,1693.9849853515625
2.0487499,1954.18798828125
2.0512498999999997,1942.950439453125
2.0537499,1625.7603759765625
2.0562499,1300.6082763671875
2.0587499,1236.086669921875
2.0612499,1469.269287109375
2.0637499,1802.8154296875
2.0662499,1990.05224609375
2.0687499,1863.0418701171875
2.0712498999999998,1492.83349609375
2.0737499,1220.266845703125
2.0762499,1270.0135498046875
2.0787499,1566.410888671875
2.0812499,1876.328857421875
2.0837499,1959.8631591796875
2.0862499,1716.0904541015625
2.0887499,1372.8724365234375
2.0912498999999998,1197.4979248046875
2.0937499,1348.79833984375
2.0962499,1680.838623046875
2.0987499,1943.0709228515625
2.1012499,1930.0567626953125
2.1037499,1611.845458984375
2.1062499,1289.4764404296875
2.1087499,1229.981201171875
2.1112499,1466.9849853515625
2.1137498999999997,1801.5880126953125
2.1162499,1987.470458984375
2.1187499,1857.9764404296875
2.1212499,1488.1812744140625
2.1237499,1219.5450439453125
2.1262499,1274.8360595703125
2.1287499,1574.6688232421875
2.1312499,1885.735107421875
2.1337498999999998,1976.9881591796875
2.1362499,1739.390625
2.1387499,1391.5125732421875
2.1412499,1217.81005859375
2.1437499,1370.447998046875
2.1462499,1700.558349609375
2.1487499,1958.24658203125
2.1512499,1939.3973388671875
2.1537498999999998,1618.117919921875
2.1562499,1294.494384765625
2.1587499,1237.195556640625
2.1612499,1474.7564697265625
2.1637499,1807.4052734375
2.1662499,1988.9241943359375
2.1687499,1855.33935546875
2.1712499,1485.8714599609375
2.1737499,1220.09716796875
2.1762499,1279.477783203125
2.1787499,1580.982177734375
2.1812499,1890.7857666015625
2.1837499,1978.2286376953125
2.1862499,1736.5828857421875
2.1887499,1389.266357421875
2.1912499,1219.613037109375
2.1937499,1376.890380859375
2.1962498999999998,1709.1123046875
2.1987499,1964.68994140625
2.2012499,1941.552001953125
2.2037499,1617.0416259765625
2.2062499,1293.63330078125
2.2087499,1242.1065673828125
2.2112499,1483.4852294921875
2.2137499,1815.188232421875
2.2162498999999998,1991.95068359375
2.2187499,1852.1605224609375
2.2212499,1482.328369140625
2.2237499,1219.8626708984375
2.2262499,1282.89013671875
2.2287499,1585.712158203125
2.2312499,1892.769775390625
2.2337499,1975.015869140625
2.2362499,1729.212646484375
2.2387499,1383.3701171875
2.2412499,1218.09619140625
2.2437499,1377.876953125
2.2462499,1709.3016357421875
2.2487499,1961.84130859375
2.2512499,1934.2730712890625
2.2537499,1607.0184326171875
2.2562499,1285.61474609375
2.2587498999999998,1238.891845703125
2.2612499,1483.7135009765625
2.2637499,1816.1708984375
2.2662499,1990.936767578125
2.2687499,1847.9493408203125
2.2712499,1478.3594970703125
2.2737499,1218.087646484375
2.2762499,1284.670166015625
2.2787498999999998,1589.936279296875
2.2812499,1897.149169921875
2.2837499,1977.5194091796875
2.2862499,1730.2154541015625
2.2887499,1384.17236328125
2.2912499,1223.537841796875
2.2937499,1388.0302734375
2.2962499,1721.4241943359375
2.2987499,1973.139404296875
2.3012499,1942.3116455078125
2.3037499,1611.849365234375
2.3062499,1289.4794921875
2.3087499,1245.7835693359375
2.3112499,1492.4268798828125
2.3137499,1824.54150390625
2.3162499,1997.033203125
2.3187499,1850.8265380859375
2.3212498999999998,1480.6612548828125
2.3237499,1223.1290283203125
2.3262499,1292.9031982421875
2.3287499,1599.12255859375
2.3312499,1904.09814453125
2.3337499,1980.8785400390625
2.3362499,1730.3028564453125
2.3387499,1384.2423095703125
2.3412498999999998,1226.5938720703125
2.3437499,1392.0750732421875
2.3462499,1724.260009765625
2.3487499,1972.008056640625
2.3512499,1936.6064453125
2.3537499,1614.6851806640625
2.3562499,1291.7481689453125
2.3587499,1262.798583984375
2.3612499,1519.638916015625
2.3637499,1851.711181640625
2.3662499,2018.76904296875
2.3687499,1864.415283203125
2.3712499,1491.5322265625
2.3737499,1233.42578125
2.3762499,1303.140625
2.3787499,1607.3125
2.3812499,1908.64990234375
2.3837498999999998,1979.5198974609375
2.3862499,1724.0159912109375
2.3887499,1379.2127685546875
2.3912499,1225.1702880859375
2.3937499,1394.5362548828125
2.3962499,1728.22900390625
2.3987499,1973.783203125
2.4012499,1933.82666015625
2.4037498999999998,1599.46142578125
2.4062499,1279.5692138671875
2.4087499,1245.6553955078125
2.4112499,1498.92431640625
2.4137499,1830.339599609375
2.4162499,1996.271728515625
2.4187499,1841.8175048828125
2.4212499,1473.4539794921875
2.4237499,1222.76318359375
2.4262499,1301.41064453125
2.4287499,1611.1285400390625
2.4312499,1912.3028564453125
2.4337499,1979.042236328125
2.4362499,1718.4337158203125
2.4387499,1374.7469482421875
2.4412499,1224.99755859375
2.4437499,1396.998046875
2.4462498999999998,1729.3984375
2.4487499,1971.518798828125
2.4512499,1927.01513671875
2.4537499,1591.4122314453125
2.4562499,1273.1297607421875
2.4587499,1245.50390625
2.4612499,1502.6031494140625
2.4637499,1834.6826171875
2.4662498999999998,1997.74609375
2.4687499,1838.1968994140625
2.4712499,1470.5574951171875
2.4737499,1238.8460693359375
2.4762499,1338.476806640625
2.4787499,1654.381591796875
2.4812499,1940.9052734375
2.4837499,1999.32421875
2.4862499,1731.859375
2.4887499,1385.487548828125
2.4912499,1237.1900634765625
2.4937499,1410.5521240234375
2.4962499,1741.641845703125
2.4987499,1980.113525390625
2.5012499,1930.4908447265625
2.5037499,1590.99267578125
2.5062499,1272.794189453125
2.5087498999999998,1247.6353759765625
2.5112499,1505.9083251953125
2.5137499,1835.9267578125
2.5162499,1995.94140625
2.5187499,1834.1531982421875
2.5212499,1467.3226318359375
2.5237499,1222.658203125
2.5262499,1308.32666015625
2.5287498999999998,1621.261474609375
2.5312499,1919.80908203125
2.5337499,1979.247314453125
2.5362499,1712.7978515625
2.5387499,1370.23828125
2.5412499,1228.5906982421875
2.5437499,1407.2725830078125
2.5462499,1741.01806640625
2.5487499,1978.2144775390625
2.5512499,1925.3717041015625
2.5537499,1584.6973876953125
2.5562499,1267.7579345703125
2.5587499,1247.806396484375
2.5612499,1508.045166015625
2.5637499,1837.4361572265625
2.5662499,1993.14892578125
2.5687499,1826.7191162109375
2.5712498999999998,1461.3753662109375
2.5737499,1220.5003662109375
2.5762499,1309.2003173828125
2.5787499,1622.560302734375
2.5812499,1919.0482177734375
2.5837499,1974.438720703125
2.5862499,1705.1510009765625
2.5887499,1364.120849609375
2.5912498999999998,1227.4967041015625
2.5937499,1409.1973876953125
2.5962499,1742.157958984375
2.5987499,1976.326416015625
2.6012499,1919.26123046875
2.6037499,1577.2091064453125
2.6062499,1261.767333984375
2.6087499,1246.8138427734375
2.6112499,1510.451171875
2.6137499,1839.56103515625
2.6162499,1992.048828125
2.6187499,1821.4390869140625
2.6212499,1457.1512451171875
2.6237499,1213.321044921875
2.6262499,1294.056884765625
2.6287499,1600.04541015625
2.6312499,1891.636474609375
2.6337498999999998,1944.1092529296875
2.6362499,1675.4874267578125
2.6387499,1340.1900634765625
2.6412499,1213.152099609375
2.6437499,1403.921630859375
2.6462499,1742.537353515625
2.6487499,1976.829833984375
2.6512499,1916.8638916015625
2.6537498999999998,1572.2911376953125
2.6562499,1257.8328857421875
2.6587499,1247.8663330078125
2.6612499,1514.093017578125
2.6637499,1842.2744140625
2.6662499,1991.2196044921875
2.6687499,1816.57568359375
2.6712499,1453.2606201171875
2.6737499,1220.20849609375
2.6762499,1317.3668212890625
2.6787499,1632.8934326171875
2.6812499,1924.3148193359375
2.6837499,1970.8519287109375
2.6862499,1695.08154296875
2.6887499,1356.0653076171875
2.6912499,1230.4522705078125
2.6937499,1421.9617919921875
2.6962498999999998,1758.76953125
2.6987499,1989.015625
2.7012499,1922.8125
2.7037499,1574.6500244140625
2.7062499,1259.9200439453125
2.7087499,1253.135986328125
2.7112499,1521.5087890625
2.7137499,1848.80712890625
2.7162498999999998,1993.845703125
2.7187499,1814.0765380859375
2.7212499,1451.26123046875
2.7237499,1220.6090087890625
2.7262499,1320.2872314453125
2.7287499,1637.429931640625
2.7312499,1927.9439697265625
2.7337499,1971.55517578125
2.7362499,1692.444091796875
2.7387499,1353.955322265625
2.7412499,1231.96435546875
2.7437499,1426.3714599609375
2.7462499,1763.297119140625
2.7487499,1990.6376953125
2.7512499,1920.110107421875
2.7537499,1570.088134765625
2.7562499,1257.2705078125
2.7587498999999998,1254.4163818359375
2.7612499,1524.533203125
2.7637499,1850.2265625
2.7662499,1991.581298828125
2.7687499,1807.864990234375
2.7712499,1446.2919921875
2.7737499,1219.0335693359375
2.7762499,1322.826904296875
2.7787498999999998,1642.461669921875
2.7812499,1931.369384765625
2.7837499,1970.295654296875
2.7862499,1687.236572265625
2.7887499,1349.789306640625
2.7912499,1232.2314453125
2.7937499,1428.78515625
2.7962499,1763.628173828125
2.7987499,1986.70263671875
2.8012499,1912.1622314453125
2.8037499,1560.5299072265625
2.8062499,1254.2239990234375
2.8087499,1256.979248046875
2.8112499,1530.783447265625
2.8137499,1856.226806640625
2.8162499,1993.9814453125
2.8187499,1805.78515625
2.8212498999999998,1444.628173828125
2.8237499,1220.7025146484375
2.8262499,1327.1619873046875
2.8287499,1646.529541015625
2.8312499,1932.6236572265625
2.8337499,1966.4990234375
2.8362499,1679.7991943359375
2.8387499,1343.83935546875
2.8412498999999998,1230.6715087890625
2.8437499,1431.3372802734375
2.8462499,1767.269775390625
2.8487499,1987.415771484375
2.8512499,1907.5325927734375
2.8537499,1554.026123046875
2.8562499,1251.220947265625
2.8587499,1257.976806640625
2.8612499,1534.181396484375
2.8637499,1858.945068359375
2.8662499,1993.356201171875
2.8687499,1800.4849853515625
2.8712499,1440.3880615234375
2.8737499,1221.1104736328125
2.8762499,1332.888427734375
2.8787499,1653.7108154296875
2.8812499,1937.7685546875
2.8837498999999998,1967.8148193359375
2.8862499,1678.2518310546875
2.8887499,1342.6014404296875
2.8912499,1234.481201171875
2.8937499,1439.9849853515625
2.8962499,1786.3880615234375
2.8987499,2013.910400390625
2.9012499,1937.1282958984375
2.9037498999999998,1582.70263671875
2.9062499,1275.962158203125
2.9087499,1280.769775390625
2.9112499,1553.6158447265625
2.9137499,1872.8927001953125
2.9162499,2000.7142333984375
2.9187499,1803.17138671875
2.9212499,1442.537109375
2.9237499,1226.4296875
2.9262499,1363.9437255859375
2.9287499,1690.755126953125
2.9312499,1958.404052734375
2.9337499,1979.7232666015625
2.9362499,1682.5787353515625
2.9387499,1346.06298828125
2.9412499,1239.25048828125
2.9437499,1443.200439453125
2.9462498999999998,1776.3603515625
2.9487499,1989.0882568359375
2.9512499,1900.2706298828125
2.9537499,1543.41650390625
2.9562499,1246.5333251953125
2.9587499,1262.626708984375
2.9612499,1543.701416015625
2.9637499,1865.961181640625
2.9662498999999998,1991.5689697265625
2.9687499,1789.4552001953125
2.9712499,1431.3642578125
2.9737499,1219.69140625
2.9762499,1338.5531005859375
2.9787499,1661.842529296875
2.9812499,1941.27392578125
2.9837499,1961.619140625
2.9862499,1665.2952880859375
2.9887499,1332.2362060546875
2.9912499,1232.5889892578125
2.9937499,1442.6712646484375
2.9962499,1777.93701171875
2.9987499,1989.149658203125
3.0012499,1896.7197265625
3.0037499,1538.1759033203125
3.0062499,1243.74072265625
3.0087499,1263.5926513671875
3.0112499,1546.47412109375
3.0137499,1867.37939453125
3.0162499,1990.70361328125
3.0187499,1786.5628662109375
3.0212499,1429.2503662109375
3.0237499,1222.000244140625
3.0262499,1344.6002197265625
3.0287498999999998,1668.2802734375
3.0312499,1945.624267578125
3.0337499,1962.699462890625
3.0362499,1664.1595458984375
3.0387499,1331.32763671875
3.0412499,1236.0621337890625
3.0437499,1449.249755859375
3.0462499,1784.599853515625
3.0487499,1992.47998046875
3.0512499,1894.7840576171875
3.0537499,1534.0272216796875
3.0562499,1242.0218505859375
3.0587499,1265.217529296875
3.0612499,1549.9739990234375
3.0637499,1870.579345703125
3.0662499,1991.0634765625
3.0687499,1783.4508056640625
3.0712499,1426.7606201171875
3.0737499,1222.80859375
3.0762499,1349.6468505859375
3.0787499,1675.1175537109375
3.0812499,1951.0941162109375
3.0837499,1963.275390625
3.0862499,1660.0203857421875
3.0887499,1328.016357421875
3.0912498999999998,1236.0130615234375
3.0937499,1451.810546875
3.0962499,1786.8485107421875
3.0987499,1992.678955078125
3.1012499,1891.7431640625
3.1037499,1529.39453125
3.1062499,1239.515625
3.1087499,1266.8125
3.1112499,1552.85009765625
3.1137499,1871.480224609375
3.1162499,1987.584228515625
3.1187499,1775.6673583984375
3.1212499,1420.533935546875
3.1237499,1219.8271484375
3.1262499,1348.86181640625
3.1287499,1674.489501953125
3.1312499,1948.191650390625
3.1337499,1958.1533203125
3.1362499,1654.32275390625
3.1387499,1323.458251953125
3.1412499,1236.966552734375
3.1437499,1455.5732421875
3.1462499,1790.858642578125
3.1487499,1993.6868896484375
3.1512499,1888.349609375
3.1537498999999998,1524.479736328125
3.1562499,1237.183837890625
3.1587499,1268.1470947265625
3.1612499,1557.11767578125
3.1637499,1875.894287109375
3.1662499,1978.91552734375
3.1687499,1750.532470703125
3.1712499,1400.426025390625
3.1737499,1203.9407958984375
3.1762499,1336.5526123046875
3.1787499,1664.0419921875
3.1812499,1938.03369140625
3.1837499,1946.626953125
3.1862499,1642.70166015625
3.1887499,1314.161376953125
3.1912499,1232.7291259765625
3.1937499,1456.183349609375
3.1962499,1792.9466552734375
3.1987499,1993.3572998046875
3.2012499,1883.6859130859375
3.2037499,1517.748779296875
3.2062499,1233.3990478515625
3.2087499,1267.919189453125
3.2112499,1558.535400390625
3.2137499,1876.0283203125
3.2162498999999998,1985.8226318359375
3.2187499,1767.05810546875
3.2212499,1413.646484375
3.2237499,1221.1171875
3.2262499,1357.293701171875
3.2287499,1685.2349853515625
3.2312499,1956.18798828125
3.2337499,1959.5504150390625
3.2362499,1652.0404052734375
3.2387499,1321.63232421875
3.2412499,1242.9058837890625
3.2437499,1467.32470703125
3.2462499,1802.259765625
3.2487499,1998.60791015625
3.2512499,1883.6864013671875
3.2537499,1516.7491455078125
3.2562499,1235.1993408203125
3.2587499,1274.5594482421875
3.2612499,1567.047607421875
3.2637499,1882.6380615234375
3.2662499,1988.1104736328125
3.2687499,1765.2884521484375
3.2712499,1412.2308349609375
3.2737499,1222.78466796875
3.2762499,1362.227783203125
3.2787498999999998,1690.7822265625
3.2812499,1958.42578125
3.2837499,1956.5406494140625
3.2862499,1644.83251953125
3.2887499,1315.8660888671875
3.2912499,1241.0928955078125
3.2937499,1468.0743408203125
3.2962499,1802.45947265625
3.2987499,1996.167724609375
3.3012499,1878.13427734375
3.3037499,1510.7073974609375
3.3062499,1232.365966796875
3.3087499,1275.892822265625
3.3112499,1570.71435546875
3.3137499,1886.171630859375
3.3162499,1989.33740234375
3.3187499,1763.0699462890625
3.3212499,1410.4559326171875
3.3237499,1225.36474609375
3.3262499,1368.891845703125
3.3287499,1697.91357421875
3.3312499,1962.531005859375
3.3337499,1955.0247802734375
3.3362499,1639.619873046875
3.3387499,1311.6959228515625
3.3412498999999998,1241.5567626953125
3.3437499,1471.4454345703125
3.3462499,1805.75634765625
3.3487499,1997.205078125
3.3512499,1876.1640625
3.3537499,1508.53125
3.3562499,1233.22509765625
3.3587499,1282.380126953125
3.3612499,1580.104248046875
3.3637499,1894.0833740234375
3.3662499,1992.0667724609375
3.3687499,1760.8533935546875
3.3712499,1408.6827392578125
3.3737499,1226.34619140625
3.3762499,1372.876953125
3.3787499,1702.70166015625
3.3812499,1956.361328125
3.3837499,1923.6890869140625
3.3862499,1593.9512939453125
3.3887499,1275.1610107421875
3.3912499,1216.328857421875
3.3937499,1455.6630859375
3.3962499,1794.130615234375
3.3987499,1985.70458984375
3.4012499,1862.36376953125
3.4037498999999998,1494.6910400390625
3.4062499,1223.352783203125
3.4087499,1276.6822509765625
3.4112499,1576.5458984375
3.4137499,1890.2366943359375
3.4162499,1986.789306640625
3.4187499,1754.4315185546875
3.4212499,1403.5452880859375
3.4237499,1226.436279296875
3.4262499,1377.34912109375
3.4287499,1708.67919921875
3.4312499,1969.54345703125
3.4337499,1953.2347412109375
3.4362499,1636.187744140625
3.4387499,1308.9501953125
3.4412499,1257.7601318359375
3.4437499,1502.0081787109375
3.4462499,1838.006591796875
3.4487499,2022.605224609375
3.4512499,1890.6842041015625
3.4537499,1516.9473876953125
3.4562499,1242.7579345703125
3.4587499,1293.806396484375
3.4612499,1590.4451904296875
3.4637499,1899.356201171875
3.4662498999999998,1989.2850341796875
3.4687499,1750.6280517578125
3.4712499,1400.50244140625
3.4737499,1225.4019775390625
3.4762499,1376.5216064453125
3.4787499,1705.417236328125
3.4812499,1962.3338623046875
3.4837499,1942.8670654296875
3.4862499,1619.8936767578125
3.4887499,1295.9149169921875
3.4912499,1238.931884765625
3.4937499,1477.7454833984375
3.4962499,1811.1964111328125
3.4987499,1993.55712890625
3.5012499,1860.2457275390625
3.5037499,1489.9967041015625
3.5062499,1223.7974853515625
3.5087499,1282.8380126953125
3.5112499,1584.2703857421875
3.5137499,1894.4163818359375
3.5162499,1982.3331298828125
3.5187499,1741.6666259765625
3.5212499,1393.3333740234375
3.5237499,1223.466796875
3.5262499,1379.573486328125
3.5287498999999998,1710.058837890625
3.5312499,1964.4471435546875
3.5337499,1940.7578125
3.5362499,1616.00634765625
3.5387499,1292.8050537109375
3.5412499,1240.4439697265625
3.5437499,1482.1551513671875
3.5462499,1815.32421875
3.5487499,1993.659423828125
3.5512499,1855.527587890625
3.5537499,1485.22216796875
3.5562499,1223.177734375
3.5587499,1287.7421875
3.5612499,1592.393798828125
3.5637499,1901.3150634765625
3.5662499,1984.4521484375
3.5687499,1738.561767578125
3.5712499,1390.8494873046875
3.5737499,1223.6795654296875
3.5762499,1382.74365234375
3.5787499,1714.594970703125
3.5812499,1968.0760498046875
3.5837499,1941.4608154296875
3.5862499,1614.36865234375
3.5887499,1291.4949951171875
3.5912498999999998,1242.7960205078125
3.5937499,1486.6368408203125
3.5962499,1819.509521484375
3.5987499,1995.40771484375
3.6012499,1853.326171875
3.6037499,1482.8609619140625
3.6062499,1221.6888427734375
3.6087499,1288.151123046875
3.6112499,1594.32080078125
3.6137499,1902.856689453125
3.6162499,1984.8853759765625
3.6187499,1737.308349609375
3.6212499,1389.8466796875
3.6237499,1225.8773193359375
3.6262499,1386.3018798828125
3.6287499,1718.04150390625
3.6312499,1969.63330078125
3.6337499,1940.106689453125
3.6362499,1612.4853515625
3.6387499,1289.98828125
3.6412499,1246.7906494140625
3.6437499,1494.83251953125
3.6462499,1828.066162109375
3.6487499,2002.2529296875
3.6512499,1857.0023193359375
3.6537498999999998,1485.8018798828125
3.6562499,1226.8414306640625
3.6587499,1295.8731689453125
3.6612499,1601.298583984375
3.6637499,1905.8388671875
3.6662499,1981.2711181640625
3.6687499,1729.616943359375
3.6712499,1383.693603515625
3.6737499,1227.1549072265625
3.6762499,1394.723876953125
3.6787499,1728.5791015625
3.6812499,1977.063232421875
3.6837499,1940.8505859375
3.6862499,1607.280517578125
3.6887499,1285.824462890625
3.6912499,1246.0595703125
3.6937499,1495.047607421875
3.6962499,1826.63818359375
3.6987499,1996.110595703125
3.7012499,1845.8885498046875
3.7037499,1476.7108154296875
3.7062499,1221.9686279296875
3.7087499,1284.974853515625
3.7112499,1581.77978515625
3.7137499,1880.223876953125
3.7162498999999998,1952.5791015625
3.7187499,1702.0633544921875
3.7212499,1361.6507568359375
3.7237499,1213.3206787109375
3.7262499,1387.8565673828125
3.7287499,1725.4853515625
3.7312499,1973.98828125
3.7337499,1935.7906494140625
3.7362499,1602.632568359375
3.7387499,1282.1060791015625
3.7412499,1247.6849365234375
3.7437499,1501.14794921875
3.7462499,1833.71826171875
3.7487499,2002.174560546875
3.7512499,1850.339599609375
3.7537499,1480.271728515625
3.7562499,1228.617431640625
3.7587499,1307.093994140625
3.7612499,1617.875244140625
3.7637499,1921.10009765625
3.7662499,1990.880126953125
3.7687499,1732.504150390625
3.7712499,1386.0032958984375
3.7737499,1235.402587890625
3.7762499,1407.7220458984375
3.7787498999999998,1741.57763671875
3.7812499,1984.2620849609375
3.7837499,1939.8096923828125
3.7862499,1604.0477294921875
3.7887499,1283.2381591796875
3.7912499,1253.590576171875
3.7937499,1509.4725341796875
3.7962499,1840.177978515625
3.7987499,2002.742431640625
3.8012499,1845.7939453125
3.8037499,1476.6351318359375
3.8062499,1228.30810546875
3.8087499,1309.2464599609375
3.8112499,1619.997314453125
3.8137499,1919.197998046875
3.8162499,1982.158447265625
3.8187499,1719.1268310546875
3.8212499,1375.301513671875
3.8237499,1229.6412353515625
3.8262499,1406.5130615234375
3.8287499,1742.010498046875
3.8312499,1983.6083984375
3.8337499,1936.086669921875
3.8362499,1581.2694091796875
3.8387499,1268.8155517578125
3.8412498999999998,1267.052490234375
3.8437499,1538.842041015625
3.8462499,1864.4736328125
3.8487499,2022.178955078125
3.8512499,1858.943115234375
3.8537499,1487.154541015625
3.8562499,1238.3236083984375
3.8587499,1320.2589111328125
3.8612499,1631.4072265625
3.8637499,1929.52587890625
3.8662499,1989.82080078125
3.8687499,1724.4566650390625
3.8712499,1379.5653076171875
3.8737499,1237.252197265625
3.8762499,1416.8017578125
3.8787499,1752.04150390625
3.8812499,1990.6331787109375
3.8837499,1938.9066162109375
3.8862499,1599.1253662109375
3.8887499,1279.30029296875
3.8912499,1258.040283203125
3.8937499,1519.4322509765625
3.8962499,1848.94580078125
3.8987499,2004.756591796875
3.9012499,1838.4052734375
3.9037499,1470.7242431640625
3.9062499,1227.3795166015625
3.9087499,1314.3035888671875
3.9112499,1627.8428955078125
3.9137499,1925.474365234375
3.9162499,1983.3795166015625
3.9187499,1716.503662109375
3.9212499,1373.2030029296875
3.9237499,1234.7623291015625
3.9262499,1416.60986328125
3.9287499,1750.887939453125
3.9312499,1986.910400390625
3.9337499,1931.728271484375
3.9362499,1589.982666015625
3.9387499,1271.9862060546875
3.9412499,1253.989013671875
3.9437499,1516.791259765625
3.9462499,1846.032958984375
3.9487499,2001.426513671875
3.9512499,1833.1412353515625
3.9537499,1466.5130615234375
3.9562499,1226.010498046875
3.9587499,1316.2083740234375
3.9612499,1629.9666748046875
3.9637499,1925.17333984375
3.9662499,1977.7386474609375
3.9687499,1705.19091796875
3.9712499,1364.1527099609375
3.9737499,1229.1221923828125
3.9762499,1412.69775390625
3.9787499,1755.358154296875
3.9812499,2000.08642578125
3.9837499,1949.8692626953125
3.9862499,1609.495361328125
3.9887499,1287.5963134765625
3.9912499,1269.47705078125
3.9937499,1530.78173828125
3.9962499,1856.225341796875
3.9987499,2003.7802734375
4.0012499,1828.8243408203125
4.003749900000001,1463.0594482421875
4.0062499,1225.84765625
4.008749900000001,1319.2781982421875
4.0112499,1634.022705078125
4.0137499000000005,1927.2181396484375
4.0162499,1976.7745361328125
4.0187499,1703.2197265625
4.021249900000001,1362.5758056640625
4.0237499,1232.66064453125
4.026249900000001,1419.728515625
4.0287499,1753.3828125
4.031249900000001,1983.1063232421875
4.0337499,1918.68505859375
4.0362499000000005,1571.548095703125
4.0387499,1257.238525390625
4.0412499,1246.9908447265625
4.043749900000001,1513.3927001953125
4.0462499,1841.314208984375
4.048749900000001,1989.451416015625
4.0512499,1813.5611572265625
4.053749900000001,1450.8489990234375
4.0562499,1218.879150390625
4.0587499000000005,1317.5032958984375
4.061249900000001,1634.4027099609375
4.0637499,1926.122314453125
4.066249900000001,1971.097900390625
4.0687499,1692.478271484375
4.071249900000001,1353.982666015625
4.0737499,1228.1861572265625
4.0762499000000005,1418.7490234375
4.0787499,1754.599365234375
4.0812499,1984.6795654296875
4.083749900000001,1918.3436279296875
4.0862499,1570.6749267578125
4.088749900000001,1256.7398681640625
4.0912499,1251.7918701171875
4.093749900000001,1522.83349609375
4.0962499,1851.06689453125
4.0987499000000005,1997.053466796875
4.1012499,1817.2427978515625
4.1037499,1453.7943115234375
4.106249900000001,1223.8355712890625
4.1087499,1325.0684814453125
4.111249900000001,1642.854736328125
4.1137499,1932.8837890625
4.116249900000001,1975.1070556640625
4.1187499,1694.085693359375
4.1212499000000005,1355.2685546875
4.123749900000001,1233.014892578125
4.1262499,1426.8118896484375
4.128749900000001,1762.4495849609375
4.1312499,1988.559814453125
4.133749900000001,1917.4478759765625
4.1362499,1567.3583984375
4.1387499000000005,1256.2867431640625
4.1412499,1254.62939453125
4.1437499,1526.903564453125
4.146249900000001,1854.122802734375
4.1487499,1995.6982421875
4.151249900000001,1811.758544921875
4.1537499,1449.4068603515625
4.156249900000001,1222.5255126953125
4.1587499,1326.6204833984375
4.1612499000000005,1645.6964111328125
4.1637499,1935.1572265625
4.1662499,1974.725830078125
4.168749900000001,1691.7806396484375
4.1712499,1353.424560546875
4.173749900000001,1235.9395751953125
4.1762499,1433.751708984375
4.178749900000001,1770.4013671875
4.1812499,1994.3211669921875
4.1837499000000005,1919.656982421875
4.186249900000001,1567.525634765625
4.1887499,1259.820556640625
4.191249900000001,1262.2564697265625
4.1937499,1537.605224609375
4.196249900000001,1864.2841796875
4.1987499,2003.827392578125
4.2012499000000005,1816.2618408203125
4.2037499,1453.009521484375
4.2062499,1228.6075439453125
4.208749900000001,1336.68603515625
4.2112499,1657.348876953125
4.213749900000001,1944.479248046875
4.2162499,1978.9833984375
4.218749900000001,1690.98681640625
4.2212499,1352.7894287109375
4.2237499000000005,1236.4315185546875
4.2262499,1434.145263671875
4.2287499,1769.1162109375
4.231249900000001,1990.093017578125
4.2337499,1912.2744140625
4.236249900000001,1560.4195556640625
4.2387499,1257.335693359375
4.241249900000001,1264.86865234375
4.2437499,1542.294921875
4.2462499000000005,1867.2359619140625
4.248749900000001,1996.788818359375
4.2512499,1792.031005859375
4.253749900000001,1433.6248779296875
4.2562499,1212.4998779296875
4.258749900000001,1322.7999267578125
4.2612499,1645.239990234375
4.2637499000000005,1932.1920166015625
4.2662499,1965.95361328125
4.2687499,1678.962890625
4.271249900000001,1343.1702880859375
4.2737499,1234.936279296875
4.276249900000001,1439.3489990234375
4.2787499,1776.67919921875
4.281249900000001,1995.54345703125
4.2837499,1913.0347900390625
4.2862499000000005,1559.02783203125
4.288749900000001,1257.822265625
4.2912499,1292.2578125
4.293749900000001,1582.206298828125
4.2962499,1897.56494140625
4.298749900000001,2004.85205078125
4.3012499,1808.6817626953125
4.303749900000001,1446.9454345703125
4.3062499,1229.9564208984375
4.3087499000000005,1344.76513671875
4.311249900000001,1667.01220703125
4.3137499,1949.009765625
4.316249900000001,1975.2078857421875
4.3187499,1682.56640625
4.321249900000001,1346.0531005859375
4.3237499,1240.842529296875
4.3262499000000005,1447.674072265625
4.3287499,1783.939208984375
4.3312499,1999.1513671875
4.333749900000001,1911.921142578125
4.3362499,1554.5369873046875
4.338749900000001,1255.4296875
4.3412499,1269.7437744140625
4.343749900000001,1551.39501953125
4.3462499,1874.916015625
4.3487499000000005,2003.1328125
4.351249900000001,1802.5062255859375
4.3537499,1442.0050048828125
4.356249900000001,1228.60400390625
4.3587499,1346.6832275390625
4.361249900000001,1668.946533203125
4.3637499,1948.357177734375
4.366249900000001,1969.8857421875
4.3687499,1674.508544921875
4.3712499000000005,1339.6068115234375
4.373749900000001,1240.6854248046875
4.3762499,1451.748291015625
4.378749900000001,1788.7987060546875
4.3812499,2001.43896484375
4.383749900000001,1909.751220703125
4.3862499,1551.0009765625
4.3887499000000005,1254.2008056640625
4.3912499,1272.360595703125
4.3937499,1554.6884765625
4.396249900000001,1874.950927734375
4.3987499,1997.36083984375
4.401249900000001,1792.088623046875
4.4037499,1433.6708984375
4.406249900000001,1223.936767578125
4.4087499,1346.349365234375
4.4112499000000005,1671.4794921875
4.413749900000001,1950.983642578125
4.4162499,1969.5870361328125
4.418749900000001,1670.669677734375
4.4212499,1336.5357666015625
4.423749900000001,1238.628662109375
4.4262499,1450.302978515625
4.428749900000001,1786.04248046875
4.4312499,1996.2340087890625
4.4337499000000005,1902.38720703125
4.436249900000001,1544.7098388671875
4.4387499,1251.16796875
4.441249900000001,1273.534423828125
4.4437499,1558.2275390625
4.446249900000001,1879.18212890625
4.4487499,2000.145751953125
4.4512499000000005,1793.1165771484375
4.4537499,1434.4932861328125
4.4562499,1227.7945556640625
4.458749900000001,1351.835693359375
4.4612499,1675.86865234375
4.463749900000001,1952.89501953125
4.4662499,1969.3160400390625
4.468749900000001,1669.8529052734375
4.4712499,1335.88232421875
4.4737499000000005,1239.7059326171875
4.476249900000001,1451.5648193359375
4.4787499,1786.451904296875
4.481249900000001,1994.96142578125
4.4837499,1899.169189453125
4.486249900000001,1541.7353515625
4.4887499,1250.3883056640625
4.491249900000001,1276.710693359375
4.4937499,1563.36865234375
4.4962499000000005,1883.294921875
4.498749900000001,2001.2359619140625
4.5012499,1790.98876953125
4.503749900000001,1432.791015625
4.5062499,1228.2327880859375
4.508749900000001,1353.9862060546875
4.5112499,1677.5889892578125
4.5137499000000005,1952.271240234375
4.5162499,1964.6170654296875
4.5187499,1663.6937255859375
4.521249900000001,1330.9549560546875
4.5237499,1254.5640869140625
4.526249900000001,1483.4512939453125
4.5287499,1822.7611083984375
4.531249900000001,2026.0087890625
4.5337499,1919.406982421875
4.5362499000000005,1552.1256103515625
4.538749900000001,1258.300537109375
4.5412499,1283.4404296875
4.543749900000001,1568.7523193359375
4.5462499,1886.601806640625
4.548749900000001,2000.8814697265625
4.5512499,1787.105224609375
4.553749900000001,1429.6842041015625
4.5562499,1229.1474609375
4.5587499000000005,1359.718017578125
4.561249900000001,1685.574462890625
4.5637499,1958.65966796875
4.566249900000001,1968.127685546875
4.5687499,1665.30224609375
4.571249900000001,1332.2418212890625
4.5737499,1247.1934814453125
4.5762499000000005,1467.7548828125
4.5787499,1803.2039794921875
4.5812499,2005.163330078125
4.583749900000001,1898.53076171875
4.5862499,1535.424560546875
4.588749900000001,1247.939697265625
4.5912499,1279.351806640625
4.593749900000001,1567.08154296875
4.5962499,1884.265380859375
4.5987499000000005,1996.6123046875
4.601249900000001,1782.0899658203125
4.6037499,1425.6719970703125
4.606249900000001,1229.337646484375
4.6087499,1363.670166015625
4.611249900000001,1690.9361572265625
4.6137499,1961.14892578125
4.616249900000001,1964.919189453125
4.6187499,1657.33544921875
4.6212499000000005,1325.868408203125
4.623749900000001,1243.8946533203125
4.6262499,1465.915771484375
4.628749900000001,1800.732666015625
4.6312499,1999.9862060546875
4.633749900000001,1889.18896484375
4.6362499,1523.751220703125
4.6387499000000005,1239.6009521484375
4.6412499,1275.880859375
4.6437499,1567.504638671875
4.646249900000001,1885.203857421875
4.6487499,1994.363037109375
4.651249900000001,1774.8905029296875
4.6537499,1419.9124755859375
4.656249900000001,1227.7301025390625
4.6587499,1365.984130859375
4.6612499000000005,1694.58740234375
4.663749900000001,1964.27001953125
4.6662499,1965.8160400390625
4.668749900000001,1656.0528564453125
4.6712499,1324.84228515625
4.673749900000001,1245.0738525390625
4.6762499,1468.4591064453125
4.678749900000001,1802.1673583984375
4.6812499,1999.1339111328125
4.6837499000000005,1887.30712890625
4.686249900000001,1523.2457275390625
4.6887499,1241.3966064453125
4.691249900000001,1281.1173095703125
4.6937499,1574.493896484375
4.696249900000001,1891.39501953125
4.6987499,1998.9161376953125
4.7012499000000005,1776.9329833984375
4.7037499,1421.54638671875
4.7062499,1230.63720703125
4.708749900000001,1369.1097412109375
4.7112499,1696.887939453125
4.713749900000001,1964.910400390625
4.7162499,1964.7283935546875
4.718749900000001,1654.582763671875
4.7212499,1323.666259765625
4.7237499000000005,1249.3330078125
4.726249900000001,1477.66650390625
4.7287499,1813.1331787109375
4.731249900000001,2008.306640625
4.7337499,1891.845458984375
4.736249900000001,1524.2764892578125
4.7387499,1243.4212646484375
4.741249900000001,1284.737060546875
4.7437499,1577.7896728515625
4.7462499000000005,1892.2318115234375
4.748749900000001,1994.7855224609375
4.7512499,1745.8284912109375
4.753749900000001,1396.662841796875
4.7562499,1235.13037109375
4.758749900000001,1376.704345703125
4.7612499,1704.963623046875
4.7637499000000005,1969.77099609375
4.7662499,1963.416748046875
4.7687499,1648.3333740234375
4.771249900000001,1318.666748046875
4.7737499,1247.533447265625
4.776249900000001,1477.226806640625
4.7787499,1812.381591796875
4.781249900000001,2004.705322265625
4.7837499,1884.7642822265625
4.7862499000000005,1517.6114501953125
4.788749900000001,1240.4892578125
4.7912499,1277.7913818359375
4.793749900000001,1561.233154296875
4.7962499,1868.3865966796875
4.798749900000001,1967.109375
4.8012499,1742.487548828125
4.803749900000001,1393.9901123046875
4.8062499,1216.192138671875
4.8087499000000005,1366.7537841796875
4.811249900000001,1699.8031005859375
4.8137499,1965.04248046875
4.816249900000001,1957.0340576171875
4.8187499,1641.6273193359375
4.821249900000001,1313.3018798828125
4.8237499,1247.4415283203125
4.8262499000000005,1480.9532470703125
4.8287499,1815.7625732421875
4.8312499,2005.610107421875
4.833749900000001,1883.4881591796875
4.8362499,1517.590576171875
4.838749900000001,1243.072509765625
4.8412499,1292.8580322265625
4.843749900000001,1589.6865234375
4.8462499,1900.94921875
4.8487499000000005,1995.95947265625
4.851249900000001,1762.3675537109375
4.8537499,1409.89404296875
4.856249900000001,1230.915283203125
4.8587499,1380.332275390625
4.861249900000001,1710.06591796875
4.8637499,1970.852783203125
4.866249900000001,1957.88232421875
4.8687499,1639.7059326171875
4.8712499000000005,1311.7647705078125
4.873749900000001,1248.2119140625
4.8762499,1483.1695556640625
4.878749900000001,1817.1357421875
4.8812499,2004.108642578125
4.883749900000001,1876.886962890625
4.8862499,1507.5096435546875
4.8887499000000005,1235.607666015625
4.8912499,1288.086181640625
4.8937499,1586.6689453125
4.896249900000001,1897.7352294921875
4.8987499,1990.7882080078125
4.901249900000001,1756.630615234375
4.9037499,1405.3045654296875
4.906249900000001,1229.24365234375
4.9087499,1381.594970703125
4.9112499000000005,1713.2760009765625
4.913749900000001,1973.82080078125
4.9162499,1958.6566162109375
4.918749900000001,1639.725341796875
4.9212499,1311.7802734375
4.923749900000001,1252.4241943359375
4.9262499,1489.139404296875
4.928749900000001,1822.511474609375
4.9312499,2007.0091552734375
4.9337499000000005,1876.6072998046875
4.936249900000001,1506.6859130859375
4.9387499,1237.1488037109375
4.941249900000001,1293.1190185546875
4.9437499,1593.4952392578125
4.946249900000001,1903.1962890625
4.9487499,1991.757080078125
4.9512499000000005,1752.6055908203125
4.9537499,1402.08447265625
4.9562499,1228.8675537109375
4.958749900000001,1381.694091796875
4.9612499,1711.75537109375
4.963749900000001,1968.404296875
4.9662499,1948.7235107421875
4.968749900000001,1626.7789306640625
4.9712499,1301.4232177734375
4.9737499000000005,1246.3385009765625
4.976249900000001,1485.4708251953125
4.9787499,1818.57666015625
4.981249900000001,2000.061279296875
4.9837499,1866.049072265625
4.986249900000001,1496.2392578125
4.9887499,1230.79150390625
4.991249900000001,1292.2332763671875
4.9937499,1595.986572265625
4.9962499000000005,1906.389404296875
4.998749900000001,1994.3115234375
5.0012499,1753.8492431640625
5.003749900000001,1403.0794677734375
5.0062499,1234.8636474609375
5.008749900000001,1393.890869140625
5.0112499,1726.312744140625
5.0137499000000005,1981.250244140625
5.0162499,1956.80029296875
5.0187499,1632.040283203125
5.021249900000001,1305.6322021484375
5.0237499,1254.105712890625
5.026249900000001,1496.28466796875
5.0287499,1829.227783203125
5.031249900000001,2007.982177734375
5.0337499,1869.585693359375
5.0362499000000005,1498.068603515625
5.038749900000001,1233.4549560546875
5.0412499,1295.9639892578125
5.043749900000001,1598.97119140625
5.0462499,1906.777099609375
5.048749900000001,1991.4217529296875
5.0512499,1748.7374267578125
5.053749900000001,1398.989990234375
5.0562499,1234.3919677734375
5.0587499000000005,1396.1136474609375
5.061249900000001,1731.69091796875
5.0637499,1995.552734375
5.066249900000001,1980.4422607421875
5.0687499,1660.953857421875
5.071249900000001,1328.7630615234375
5.0737499,1277.810546875
5.0762499000000005,1519.6484375
5.0787499,1849.1187744140625
5.0812499,2022.2950439453125
5.083749900000001,1877.236083984375
5.0862499,1502.5889892578125
5.088749900000001,1239.0711669921875
5.0912499,1303.45703125
5.093749900000001,1606.565673828125
5.0962499,1912.652587890625
5.0987499000000005,1992.5220947265625
5.101249900000001,1745.61767578125
5.1037499,1396.494140625
5.106249900000001,1233.995361328125
5.1087499,1396.7962646484375
5.111249900000001,1728.037109375
5.1137499,1977.8297119140625
5.116249900000001,1946.0638427734375
5.1187499,1616.651123046875
5.1212499000000005,1293.3209228515625
5.123749900000001,1250.456787109375
5.1262499,1497.765380859375
5.128749900000001,1830.01220703125
5.1312499,2002.809814453125
5.133749900000001,1856.64794921875
5.1362499,1485.518310546875
5.1387499000000005,1227.0146484375
5.1412499,1296.4117431640625
5.1437499,1602.329345703125
5.146249900000001,1907.863525390625
5.1487499,1985.0909423828125
5.151249900000001,1735.4727783203125
5.1537499,1388.3782958984375
5.156249900000001,1230.902587890625
5.1587499,1398.1220703125
5.1612499000000005,1731.69775390625
5.163749900000001,1981.158203125
5.1662499,1947.32666015625
5.168749900000001,1616.661376953125
5.1712499,1293.3291015625
5.173749900000001,1254.0633544921875
5.1762499,1503.650634765625
5.178749900000001,1836.12060546875
5.1812499,2007.696533203125
5.1837499000000005,1860.357177734375
5.186249900000001,1489.0858154296875
5.1887499,1234.0687255859375
5.191249900000001,1308.0550537109375
5.1937499,1616.044189453125
5.196249900000001,1919.8353271484375
5.1987499,1992.46826171875
5.2012499000000005,1737.5745849609375
5.2037499,1390.0596923828125
5.2062499,1258.2476806640625
5.208749900000001,1444.398193359375
5.2112499,1776.718505859375
5.213749900000001,2003.574951171875
5.2162499,1961.06005859375
5.218749900000001,1624.8480224609375
5.2212499,1299.87841796875
5.2237499000000005,1262.9027099609375
5.226249900000001,1513.522216796875
5.2287499,1843.017822265625
5.231249900000001,2007.6142578125
5.2337499,1852.491455078125
5.236249900000001,1481.9931640625
5.2387499,1229.3946533203125
5.241249900000001,1305.7158203125
5.2437499,1615.172607421875
5.2462499000000005,1918.5380859375
5.248749900000001,1989.8304443359375
5.2512499,1734.46435546875
5.253749900000001,1387.571533203125
5.2562499,1237.2572021484375
5.258749900000001,1409.005859375
5.2612499,1741.604736328125
5.2637499000000005,1984.8837890625
5.2662499,1942.7071533203125
5.2687499,1608.7657470703125
5.271249900000001,1287.0125732421875
5.2737499,1256.41015625
5.276249900000001,1511.7281494140625
5.2787499,1843.1826171875
5.281249900000001,2007.546142578125
5.2837499,1850.636962890625
5.2862499000000005,1480.5096435546875
5.288749900000001,1229.40771484375
5.2912499,1307.326171875
5.293749900000001,1616.260986328125
5.2962499,1916.4088134765625
5.298749900000001,1982.527099609375
5.3012499,1722.2216796875
5.303749900000001,1377.77734375
5.3062499,1231.02197265625
5.3087499000000005,1406.6175537109375
5.311249900000001,1741.2940673828125
5.3137499,1984.0352783203125
5.316249900000001,1938.6282958984375
5.3187499,1601.302734375
5.321249900000001,1281.042236328125
5.3237499,1253.6339111328125
5.3262499000000005,1511.30712890625
5.3287499,1843.245849609375
5.3312499,2005.9967041015625
5.333749900000001,1835.3973388671875
5.3362499,1468.31787109375
5.338749900000001,1218.0543212890625
5.3412499,1297.6435546875
5.343749900000001,1608.71484375
5.3462499,1910.171875
5.3487499000000005,1975.337646484375
5.351249900000001,1714.2701416015625
5.3537499,1371.4161376953125
5.356249900000001,1231.1329345703125
5.3587499,1412.7064208984375
5.361249900000001,1750.365234375
5.3637499,1991.4921875
5.366249900000001,1942.393798828125
5.3687499,1601.9150390625
5.3712499000000005,1281.5321044921875
5.373749900000001,1256.2257080078125
5.3762499,1514.7806396484375
5.378749900000001,1844.62451171875
5.3812499,2002.899658203125
5.383749900000001,1839.1197509765625
5.3862499,1471.2957763671875
5.3887499000000005,1227.836669921875
5.3912499,1315.6693115234375
5.3937499,1630.5355224609375
5.396249900000001,1929.62841796875
5.3987499,1957.302734375
5.401249900000001,1696.2421875
5.4037499,1356.9937744140625
5.406249900000001,1220.5950927734375
5.4087499,1404.276123046875
5.4112499000000005,1743.02099609375
5.413749900000001,1983.4168701171875
5.4162499,1932.33349609375
5.418749900000001,1592.266845703125
5.4212499,1273.8134765625
5.423749900000001,1255.4508056640625
5.4262499,1519.16064453125
5.428749900000001,1849.528564453125
5.4312499,2005.4228515625
5.4337499000000005,1837.3382568359375
5.436249900000001,1469.87060546875
5.4387499,1227.2965087890625
5.441249900000001,1315.837158203125
5.4437499,1630.06982421875
5.446249900000001,1927.255859375
5.4487499,1983.2047119140625
5.4512499000000005,1713.7637939453125
5.4537499,1371.0111083984375
5.4562499,1235.6090087890625
5.458749900000001,1420.4873046875
5.4612499,1756.989990234375
5.463749900000001,1991.9920654296875
5.4662499,1934.3936767578125
5.468749900000001,1591.3150634765625
5.4712499,1273.0521240234375
5.4737499000000005,1259.041748046875
5.476249900000001,1524.6334228515625
5.4787499,1853.1068115234375
5.481249900000001,2003.4854736328125
5.4837499,1829.5885009765625
5.486249900000001,1463.6707763671875
5.4887499,1225.336669921875
5.491249900000001,1318.4693603515625
5.4937499,1635.37548828125
5.4962499000000005,1931.700439453125
5.498749900000001,1985.560302734375
5.5012499,1713.4482421875
5.503749900000001,1370.7586669921875
5.5062499,1238.60693359375
5.508749900000001,1426.0855712890625
5.5112499,1762.068603515625
5.5137499000000005,1993.454833984375
5.5162499,1930.56396484375
5.5187499,1582.651123046875
5.521249900000001,1266.1209716796875
5.5237499,1253.896728515625
5.526249900000001,1520.517333984375
5.5287499,1850.2138671875
5.531249900000001,2001.171142578125
5.5337499,1827.1368408203125
5.5362499000000005,1461.70947265625
5.538749900000001,1227.3675537109375
5.5412499,1324.2940673828125
5.543749900000001,1642.2353515625
5.5462499,1936.388427734375
5.548749900000001,1984.710693359375
5.5512499,1708.1685791015625
5.553749900000001,1366.534912109375
5.5562499,1237.2279052734375
5.5587499000000005,1426.5823974609375
5.561249900000001,1763.06591796875
5.5637499,1994.052734375
5.566249900000001,1931.042236328125
5.5687499,1584.433837890625
5.571249900000001,1267.7470703125
5.5737499,1259.9976806640625
5.5762499000000005,1529.398193359375
5.5787499,1857.318603515625
5.5812499,2004.054931640625
5.583749900000001,1825.2440185546875
5.5862499,1460.1951904296875
5.588749900000001,1227.3560791015625
5.5912499,1325.8848876953125
5.593749900000001,1643.5078125
5.5962499,1935.8062744140625
5.5987499000000005,1981.0450439453125
5.601249900000001,1703.0360107421875
5.6037499,1362.4288330078125
5.606249900000001,1249.14306640625
5.6087499,1452.9144287109375
5.611249900000001,1794.531494140625
5.6137499,2021.8251953125
5.616249900000001,1950.26025390625
5.6187499,1596.208251953125
5.6212499000000005,1277.566650390625
5.623749900000001,1269.0533447265625
5.6262499,1537.24267578125
5.628749900000001,1862.59423828125
5.6312499,2005.275390625
5.633749900000001,1822.0203857421875
5.6362499,1457.6163330078125
5.6387499000000005,1226.4931640625
5.6412499,1327.194580078125
5.6437499,1645.5556640625
5.646249900000001,1936.444580078125
5.6487499,1978.9556884765625
5.651249900000001,1698.16455078125
5.6537499,1358.5316162109375
5.656249900000001,1237.6253662109375
5.6587499,1454.30029296875
5.6612499000000005,1792.4403076171875
5.663749900000001,2001.352294921875
5.6662499,1902.8819580078125
5.668749900000001,1556.70556640625
5.6712499,1248.7645263671875
5.673749900000001,1250.6116943359375
5.6762499,1525.289306640625
5.678749900000001,1853.6314697265625
5.6812499,1995.505126953125
5.6837499000000005,1810.2042236328125
5.686249900000001,1448.1634521484375
5.6887499,1221.9307861328125
5.691249900000001,1327.3446044921875
5.6937499,1647.67578125
5.696249900000001,1936.5406494140625
5.6987499,1974.2325439453125
5.7012499000000005,1690.1861572265625
5.7037499,1352.14892578125
5.7062499,1235.7191162109375
5.708749900000001,1434.5753173828125
5.7112499,1771.8603515625
5.713749900000001,1996.08837890625
5.7162499,1921.07080078125
5.718749900000001,1568.65673828125
5.7212499,1261.525390625
5.7237499000000005,1264.4202880859375
5.726249900000001,1539.336181640625
5.7287499,1865.26904296875
5.731249900000001,2003.615234375
5.7337499,1815.8922119140625
5.736249900000001,1452.7137451171875
5.7387499,1229.77099609375
5.741249900000001,1338.81689453125
5.7437499,1660.653564453125
5.7462499000000005,1948.5228271484375
5.748749900000001,1983.418212890625
5.7512499,1696.1346435546875
5.753749900000001,1356.90771484375
5.7562499,1241.7261962890625
5.758749900000001,1442.1810302734375
5.7612499,1779.544921875
5.7637499000000005,2002.0360107421875
5.7662499,1924.828857421875
5.7687499,1571.6632080078125
5.771249900000001,1266.33056640625
5.7737499,1272.4644775390625
5.776249900000001,1548.9716796875
5.7787499,1873.577392578125
5.781249900000001,2008.8619384765625
5.7837499,1817.089599609375
5.7862499000000005,1453.6717529296875
5.788749900000001,1232.1373291015625
5.7912499,1342.909912109375
5.793749900000001,1664.927978515625
5.7962499,1951.3424072265625
5.798749900000001,1983.073974609375
5.8012499,1694.25927734375
5.803749900000001,1355.407470703125
5.8062499,1243.5260009765625
5.8087499000000005,1445.620849609375
5.811249900000001,1781.69677734375
5.8137499,1999.95751953125
5.816249900000001,1917.5660400390625
5.8187499,1562.2528076171875
5.821249900000001,1259.002197265625
5.8237499,1266.601806640625
5.8262499000000005,1543.681396484375
5.8287499,1867.7451171875
5.8312499,1999.9962158203125
5.833749900000001,1805.1968994140625
5.8362499,1444.1575927734375
5.838749900000001,1227.3260498046875
5.8412499,1342.4608154296875
5.843749900000001,1666.168701171875
5.8462499,1950.9349365234375
5.8487499000000005,1979.5479736328125
5.851249900000001,1688.0384521484375
5.8537499,1350.4307861328125
5.856249900000001,1242.74462890625
5.8587499,1447.7957763671875
5.861249900000001,1784.03662109375
5.8637499,2000.429443359375
5.866249900000001,1915.3436279296875
5.8687499,1558.27490234375
5.8712499000000005,1257.219970703125
5.873749900000001,1265.176025390625
5.8762499,1532.540771484375
5.878749900000001,1847.632568359375
5.8812499,1973.7060546875
5.883749900000001,1776.96484375
5.8862499,1421.5718994140625
5.8887499000000005,1212.257568359375
5.8912499,1334.2060546875
5.8937499,1661.56494140625
5.896249900000001,1945.052001953125
5.8987499,1969.441650390625
5.901249900000001,1675.7532958984375
5.9037499,1340.6026611328125
5.906249900000001,1239.68212890625
5.9087499,1450.94580078125
5.9112499000000005,1789.356689453125
5.913749900000001,2003.685302734375
5.9162499,1913.748291015625
5.918749900000001,1554.9986572265625
5.9212499,1256.7989501953125
5.923749900000001,1274.0391845703125
5.9262499,1557.2314453125
5.928749900000001,1880.1851806640625
5.9312499,2006.5482177734375
5.9337499000000005,1804.638671875
5.936249900000001,1443.7109375
5.9387499,1232.168701171875
5.941249900000001,1352.7349853515625
5.9437499,1677.387939453125
5.946249900000001,1957.910400390625
5.9487499,1979.328369140625
5.9512499000000005,1682.86279296875
5.9537499,1346.290283203125
5.9562499,1246.0322265625
5.958749900000001,1457.225830078125
5.9612499,1793.7806396484375
5.963749900000001,2004.424560546875
5.9662499,1910.939697265625
5.968749900000001,1550.5518798828125
5.9712499,1254.4415283203125
5.9737499000000005,1274.55322265625
5.976249900000001,1558.442626953125
5.9787499,1879.9541015625
5.981249900000001,2002.9632568359375
5.9837499,1797.570556640625
5.986249900000001,1438.0565185546875
5.9887499,1230.045166015625
5.991249900000001,1353.836181640625
5.9937499,1680.0689697265625
5.9962499000000005,1959.4552001953125
5.998749900000001,1977.76416015625
6.0012499,1678.4112548828125
6.003749900000001,1342.72900390625
6.0062499,1245.583251953125
6.008749900000001,1457.8665771484375
6.0112499,1793.09326171875
6.0137499000000005,2001.474609375
6.016249900000001,1904.979736328125
6.0187499,1544.1837158203125
6.021249900000001,1250.947021484375
6.0237499,1275.1575927734375
6.026249900000001,1562.326171875
6.0287499,1884.06103515625
6.031249900000001,2005.448974609375
6.0337499,1796.959228515625
6.0362499000000005,1437.5673828125
6.038749900000001,1232.053955078125
6.0412499,1358.043212890625
6.043749900000001,1683.8345947265625
6.0462499,1960.267822265625
6.048749900000001,1974.2142333984375
6.0512499,1672.971435546875
6.053749900000001,1338.377197265625
6.0562499,1248.101806640625
6.0587499000000005,1466.281494140625
6.061249900000001,1802.625244140625
6.0637499,2008.500244140625
6.066249900000001,1907.000244140625
6.0687499,1543.6002197265625
6.071249900000001,1251.480224609375
6.0737499,1278.584228515625
6.0762499000000005,1566.4674072265625
6.078749900000001,1886.573974609375
6.0812499,2004.2591552734375
6.083749900000001,1792.4073486328125
6.0862499,1433.9259033203125
6.088749900000001,1232.540771484375
6.0912499,1362.6326904296875
6.093749900000001,1690.30615234375
6.0962499,1965.445068359375
6.0987499000000005,1976.1561279296875
6.101249900000001,1671.7249755859375
6.1037499,1337.3800048828125
6.106249900000001,1248.10400390625
6.1087499,1467.283203125
6.111249900000001,1804.026611328125
6.1137499,2008.021240234375
6.116249900000001,1878.0169677734375
6.1187499,1507.8135986328125
6.1212499000000005,1237.65087890625
6.123749900000001,1293.9207763671875
6.1262499,1580.736572265625
6.128749900000001,1897.38916015625
6.1312499,2010.3114013671875
6.133749900000001,1793.84912109375
6.1362499,1435.079345703125
6.1387499000000005,1234.0634765625
6.141249900000001,1363.850830078125
6.1437499,1689.480712890625
6.146249900000001,1970.5845947265625
6.1487499,1989.4676513671875
6.151249900000001,1690.7740478515625
6.1537499,1352.6192626953125
6.156249900000001,1265.095458984375
6.1587499,1482.8763427734375
6.1612499000000005,1814.901123046875
6.163749900000001,2013.52099609375
6.1662499,1904.6168212890625
6.168749900000001,1538.4935302734375
6.1712499,1249.9947509765625
6.173749900000001,1281.5958251953125
6.1762499,1570.07666015625
6.178749900000001,1886.661376953125
6.1812499,1996.7291259765625
6.1837499000000005,1778.38330078125
6.186249900000001,1422.7066650390625
6.1887499,1226.9654541015625
6.191249900000001,1361.3724365234375
6.1937499,1687.697998046875
6.196249900000001,1958.5584716796875
6.1987499,1963.8468017578125
6.2012499000000005,1657.0775146484375
6.203749900000001,1325.6619873046875
6.2062499,1245.7296142578125
6.208749900000001,1470.583740234375
6.2112499,1807.467041015625
6.213749900000001,2007.9736328125
6.2162499,1899.578857421875
6.218749900000001,1535.0631103515625
6.2212499,1248.8505859375
6.2237499000000005,1283.48046875
6.226249900000001,1572.984375
6.2287499,1889.3875732421875
6.231249900000001,1998.710205078125
6.2337499,1779.9681396484375
6.236249900000001,1423.9744873046875
6.2387499,1231.57958984375
6.241249900000001,1368.6636962890625
6.2437499,1694.3310546875
6.2462499000000005,1961.46484375
6.248749900000001,1962.971923828125
6.2512499,1654.777587890625
6.253749900000001,1323.8221435546875
6.2562499,1246.2576904296875
6.258749900000001,1471.006103515625
6.2612499,1805.2049560546875
6.2637499000000005,2002.56396484375
6.266249900000001,1891.251220703125
6.2687499,1527.4010009765625
6.271249900000001,1245.1207275390625
6.2737499,1283.49658203125
6.276249900000001,1572.59716796875
6.2787499,1885.0777587890625
6.281249900000001,1990.6622314453125
6.2837499,1770.329833984375
6.2862499000000005,1416.263916015625
6.288749900000001,1228.2110595703125
6.2912499,1367.1688232421875
6.293749900000001,1692.1351318359375
6.2962499,1957.508056640625
6.298749900000001,1957.20654296875
6.3012499,1649.365234375
6.303749900000001,1319.4921875
6.3062499,1246.59375
6.3087499000000005,1472.2750244140625
6.311249900000001,1803.02001953125
6.3137499,1996.216064453125
6.316249900000001,1883.77294921875
6.3187499,1522.41845703125
6.321249900000001,1243.5347900390625
6.3237499,1285.02783203125
6.3262499000000005,1572.222412109375
6.328749900000001,1879.97802734375
6.3312499,1981.182373046875
6.333749900000001,1759.5458984375
6.3362499,1407.63671875
6.338749900000001,1223.109375
6.3412499,1361.487548828125
6.343749900000001,1680.1900634765625
6.3462499,1938.5521240234375
6.3487499000000005,1935.441650390625
6.351249900000001,1629.75341796875
6.3537499,1303.802734375
6.356249900000001,1234.6422119140625
6.3587499,1456.5137939453125
6.361249900000001,1779.010986328125
6.3637499,1965.408935546875
6.366249900000001,1850.7271728515625
6.3687499,1493.3818359375
6.3712499000000005,1221.10546875
6.373749900000001,1264.484375
6.3762499,1546.1875
6.378749900000001,1844.9500732421875
6.3812499,1940.56005859375
6.383749900000001,1719.2481689453125
6.3862499,1375.3985595703125
6.3887499000000005,1198.518798828125
6.391249900000001,1338.01513671875
6.3937499,1650.412109375
6.396249900000001,1901.9296875
6.3987499,1896.94384765625
6.401249900000001,1596.3551025390625
6.4037499,1277.0841064453125
6.406249900000001,1215.267333984375
6.4087499,1437.413818359375
6.4112499000000005,1754.73095703125
6.413749900000001,1937.384765625
6.4162499,1816.9078369140625
6.418749900000001,1456.3262939453125
6.4212499,1190.6610107421875
6.423749900000001,1238.328857421875
6.4262499,1520.0631103515625
6.428749900000001,1818.650634765625
6.4312499,1918.9205322265625
6.4337499000000005,1707.5364990234375
6.436249900000001,1366.0291748046875
6.4387499,1199.42333984375
6.441249900000001,1346.73876953125
6.4437499,1661.19091796875
6.446249900000001,1912.15283203125
6.4487499,1907.92236328125
6.4512499000000005,1610.7379150390625
6.453749900000001,1288.59033203125
6.4562499,1233.872314453125
6.458749900000001,1460.6978759765625
6.4612499,1778.158447265625
6.463749900000001,1959.9267578125
6.4662499,1848.141357421875
6.468749900000001,1502.9130859375
6.4712499,1238.930419921875
6.4737499000000005,1292.9443359375
6.476249900000001,1576.35546875
6.4787499,1871.284423828125
6.481249900000001,1967.027587890625
6.4837499,1752.422119140625
6.486249900000001,1401.937744140625
6.4887499,1235.150146484375
6.491249900000001,1383.1201171875
6.4937499,1695.09619140625
6.4962499000000005,1941.876953125
6.498749900000001,1935.901611328125
6.5012499,1639.121337890625
6.503749900000001,1311.297119140625
6.5062499,1256.8377685546875
6.508749900000001,1481.0701904296875
6.5112499,1794.2562255859375
6.5137499000000005,1972.60498046875
6.516249900000001,1859.884033203125
6.5187499,1517.707275390625
6.521249900000001,1256.9659423828125
6.5237499,1314.772705078125
6.526249900000001,1598.018310546875
6.5287499,1889.61474609375
6.531249900000001,1981.4918212890625
6.5337499,1765.1934814453125
6.5362499000000005,1412.15478515625
6.538749900000001,1249.1239013671875
6.5412499,1399.09912109375
6.543749900000001,1710.479248046875
6.5462499,1955.183349609375
6.548749900000001,1946.94677734375
6.5512499,1651.5574951171875
6.553749900000001,1322.0460205078125
6.5562499,1274.4368896484375
6.5587499000000005,1503.549560546875
6.561249900000001,1817.039794921875
6.5637499,1993.431884765625
6.566249900000001,1878.5455322265625
6.5687499,1535.2364501953125
6.571249900000001,1275.189208984375
6.5737499,1356.7513427734375
6.5762499000000005,1648.401123046875
6.578749900000001,1928.1209716796875
6.5812499,1993.8968505859375
6.583749900000001,1776.1175537109375
6.5862499,1422.4940185546875
6.588749900000001,1263.1951904296875
6.5912499,1415.55615234375
6.593749900000001,1726.044921875
6.5962499,1967.8359375
6.5987499000000005,1957.268798828125
6.601249900000001,1662.0150146484375
6.6037499,1337.2120361328125
6.606249900000001,1291.9696044921875
6.6087499,1519.775634765625
6.611249900000001,1829.62060546875
6.6137499,2002.49658203125
6.616249900000001,1886.197265625
6.6187499,1545.9578857421875
6.6212499000000005,1291.766357421875
6.623749900000001,1356.213134765625
6.6262499,1639.170654296875
6.628749900000001,1925.53662109375
6.6312499,2012.829345703125
6.633749900000001,1794.863525390625
6.6362499,1444.890869140625
6.6387499000000005,1291.7127685546875
6.641249900000001,1446.3702392578125
6.6437499,1754.896240234375
6.646249900000001,1992.51708984375
6.6487499,1977.813720703125
6.651249900000001,1680.051025390625
6.6537499,1357.2408447265625
6.656249900000001,1315.3927001953125
6.6587499,1544.7142333984375
6.6612499000000005,1852.7713623046875
6.663749900000001,2021.6171875
6.6662499,1900.0938720703125
6.668749900000001,1558.0750732421875
6.6712499,1306.6600341796875
6.673749900000001,1373.3280029296875
6.6762499,1656.46240234375
6.678749900000001,1939.5699462890625
6.6812499,2019.4560546875
6.6837499000000005,1793.3648681640625
6.686249900000001,1441.0919189453125
6.6887499,1300.673583984375
6.691249900000001,1467.5389404296875
6.6937499,1779.8310546875
6.696249900000001,2012.46484375
6.6987499,1988.171875
6.7012499000000005,1681.3375244140625
6.703749900000001,1353.070068359375
6.7062499,1309.8560791015625
6.708749900000001,1538.6849365234375
6.7112499,1845.3480224609375
6.713749900000001,2010.87841796875
6.7162499,1884.5028076171875
6.718749900000001,1539.40234375
6.7212499,1287.5218505859375
6.7237499000000005,1354.217529296875
6.726249900000001,1636.573974609375
6.7287499,1918.2591552734375
6.731249900000001,1995.4073486328125
6.7337499,1767.325927734375
6.736249900000001,1414.6607666015625
6.7387499,1265.7286376953125
6.741249900000001,1424.3829345703125
6.7437499,1733.706298828125
6.7462499000000005,1967.565185546875
6.748749900000001,1944.8521728515625
6.7512499,1641.8817138671875
6.753749900000001,1321.1053466796875
6.7562499,1286.4842529296875
6.758749900000001,1520.787353515625
6.7612499,1829.22998046875
6.7637499000000005,1992.7840576171875
6.766249900000001,1862.227294921875
6.7687499,1515.181884765625
6.771249900000001,1266.5455322265625
6.7737499,1338.2364501953125
6.776249900000001,1625.9892578125
6.7787499,1910.19140625
6.781249900000001,1986.353271484375
6.7837499,1754.6826171875
6.7862499000000005,1403.74609375
6.788749900000001,1257.9969482421875
6.7912499,1420.99755859375
6.793749900000001,1732.59814453125
6.7962499,1965.0784912109375
6.798749900000001,1936.0628662109375
6.8012499,1627.650390625
6.803749900000001,1308.120361328125
6.8062499,1278.0963134765625
6.8087499000000005,1517.677001953125
6.811249900000001,1829.5416259765625
6.8137499,1991.63330078125
6.816249900000001,1856.506591796875
6.8187499,1506.00537109375
6.821249900000001,1259.204345703125
6.8237499,1333.763427734375
6.8262499000000005,1624.210693359375
6.828749900000001,1908.7685546875
6.8312499,1981.21484375
6.833749900000001,1744.77197265625
6.8362499,1395.817626953125
6.838749900000001,1252.254150390625
6.8412499,1418.00341796875
6.843749900000001,1732.802734375
6.8462499,1965.6422119140625
6.8487499000000005,1934.7138671875
6.851249900000001,1623.7711181640625
6.8537499,1305.0169677734375
6.856249900000001,1277.613525390625
6.8587499,1518.890869140625
6.861249900000001,1830.91259765625
6.8637499,1990.93017578125
6.866249900000001,1851.744140625
6.8687499,1499.995361328125
6.8712499000000005,1255.5963134765625
6.873749900000001,1333.0770263671875
6.8762499,1625.26171875
6.878749900000001,1908.2093505859375
6.8812499,1975.967529296875
6.883749900000001,1734.7740478515625
6.8862499,1387.8192138671875
6.8887499000000005,1248.6553955078125
6.891249900000001,1419.124267578125
6.8937499,1736.49951171875
6.896249900000001,1969.799560546875
6.8987499,1936.439697265625
6.901249900000001,1623.1517333984375
6.9037499,1304.5213623046875
6.906249900000001,1278.217041015625
6.9087499,1520.9736328125
6.9112499000000005,1832.578857421875
6.913749900000001,1989.0631103515625
6.9162499,1844.8504638671875
6.918749900000001,1489.88037109375
6.9212499,1248.904296875
6.923749900000001,1330.323486328125
6.9262499,1626.2587890625
6.928749900000001,1911.007080078125
6.9312499,1977.2056884765625
6.9337499000000005,1733.16455078125
6.936249900000001,1386.5316162109375
6.9387499,1249.025390625
6.941249900000001,1420.42041015625
6.9437499,1737.536376953125
6.946249900000001,1967.8291015625
6.9487499,1929.0633544921875
6.9512499000000005,1612.05078125
6.953749900000001,1295.440673828125
6.9562499,1273.3525390625
6.958749900000001,1509.08203125
6.9612499,1811.465576171875
6.963749900000001,1960.7724609375
6.9662499,1812.4180908203125
6.968749900000001,1459.534423828125
6.9712499,1226.4276123046875
6.9737499000000005,1316.14208984375
6.976249900000001,1618.713623046875
6.9787499,1907.1708984375
6.981249900000001,1973.936767578125
6.9837499,1728.949462890625
6.986249900000001,1383.1595458984375
6.9887499,1249.127685546875
6.991249900000001,1424.30224609375
6.9937499,1743.641845703125
6.9962499000000005,1972.71337890625
6.998749900000001,1928.9708251953125
7.0012499,1607.776611328125
7.003749900000001,1293.621337890625
7.0062499,1276.4970703125
7.008749900000001,1528.397705078125
7.0112499,1845.918212890625
7.0137499000000005,2001.334716796875
7.016249900000001,1849.0677490234375
7.0187499,1488.2542724609375
7.021249900000001,1249.8033447265625
7.0237499,1336.24267578125
7.026249900000001,1636.794189453125
7.0287499,1922.635498046875
7.031249900000001,1962.7083740234375
7.0337499,1694.166748046875
7.0362499000000005,1355.3333740234375
7.038749900000001,1252.666748046875
7.0412499,1431.533447265625
7.043749900000001,1753.226806640625
7.0462499,1980.9814453125
7.048749900000001,1932.78515625
7.0512499,1607.4281005859375
7.053749900000001,1292.342529296875
7.0562499,1275.4739990234375
7.0587499000000005,1527.7791748046875
7.061249900000001,1843.823486328125
7.0637499,1995.658935546875
7.066249900000001,1839.127197265625
7.0687499,1476.101806640625
7.071249900000001,1240.6815185546875
7.0737499,1330.545166015625
7.0762499000000005,1632.836181640625
7.078749900000001,1917.2689208984375
7.0812499,1974.2152099609375
7.083749900000001,1718.1722412109375
7.0862499,1374.537841796875
7.088749900000001,1245.230224609375
7.0912499,1424.7841796875
7.093749900000001,1746.62744140625
7.0962499,1974.10205078125
7.0987499000000005,1923.681640625
7.101249900000001,1595.9453125
7.1037499,1283.7562255859375
7.106249900000001,1272.2049560546875
7.1087499,1529.1639404296875
7.111249900000001,1847.131103515625
7.1137499,1997.7049560546875
7.116249900000001,1837.763916015625
7.1187499,1474.6112060546875
7.1212499000000005,1242.489013671875
7.123749900000001,1335.791259765625
7.1262499,1639.8330078125
7.128749900000001,1922.866455078125
7.1312499,1975.4931640625
7.133749900000001,1714.594482421875
7.1362499,1371.6756591796875
7.1387499000000005,1245.54052734375
7.141249900000001,1428.8323974609375
7.1437499,1752.4659423828125
7.146249900000001,1977.772705078125
7.1487499,1922.818115234375
7.151249900000001,1592.0545654296875
7.1537499,1281.043701171875
7.156249900000001,1271.635009765625
7.1587499,1530.30810546875
7.1612499000000005,1848.646484375
7.163749900000001,1996.3172607421875
7.1662499,1832.453857421875
7.168749900000001,1467.5631103515625
7.1712499,1237.4505615234375
7.173749900000001,1333.760498046875
7.1762499,1640.808349609375
7.178749900000001,1924.8466796875
7.1812499,1974.8773193359375
7.1837499000000005,1710.701904296875
7.186249900000001,1368.5615234375
7.1887499,1244.8492431640625
7.191249900000001,1431.079345703125
7.1937499,1757.0634765625
7.196249900000001,1982.05078125
7.1987499,1923.2406005859375
7.2012499000000005,1588.392578125
7.203749900000001,1277.714111328125
7.2062499,1269.9713134765625
7.208749900000001,1529.97705078125
7.2112499,1848.181640625
7.213749900000001,1993.745361328125
7.2162499,1825.5963134765625
7.218749900000001,1460.677001953125
7.2212499,1232.5416259765625
7.2237499000000005,1331.433349609375
7.226249900000001,1640.3466796875
7.2287499,1930.6773681640625
7.231249900000001,1991.741943359375
7.2337499,1735.3935546875
7.236249900000001,1388.3148193359375
7.2387499,1265.65185546875
7.241249900000001,1451.321533203125
7.2437499,1773.857177734375
7.2462499000000005,1993.285888671875
7.248749900000001,1927.828857421875
7.2512499,1587.6630859375
7.253749900000001,1278.1304931640625
7.2562499,1274.1043701171875
7.258749900000001,1538.08349609375
7.2612499,1857.466796875
7.2637499000000005,2000.573486328125
7.266249900000001,1828.2589111328125
7.2687499,1462.607177734375
7.271249900000001,1236.0858154296875
7.2737499,1336.4686279296875
7.276249900000001,1645.974853515625
7.2787499,1928.3798828125
7.281249900000001,1972.5040283203125
7.2837499,1701.0032958984375
7.2862499000000005,1360.8026123046875
7.288749900000001,1242.2420654296875
7.2912499,1431.5936279296875
7.293749900000001,1757.474853515625
7.2962499,1978.77978515625
7.298749900000001,1913.223876953125
7.3012499,1573.9791259765625
7.303749900000001,1267.7833251953125
7.3062499,1267.0267333984375
7.3087499000000005,1532.621337890625
7.311249900000001,1851.89697265625
7.3137499,1992.1175537109375
7.316249900000001,1814.89404296875
7.3187499,1451.915283203125
7.321249900000001,1227.5322265625
7.3237499,1330.02587890625
7.3262499000000005,1641.020751953125
7.328749900000001,1924.416748046875
7.3312499,1967.33349609375
7.333749900000001,1694.8668212890625
7.3362499,1355.8934326171875
7.338749900000001,1242.11474609375
7.3412499,1438.2918701171875
7.343749900000001,1768.233642578125
7.3462499,1990.386962890625
7.3487499000000005,1923.109619140625
7.351249900000001,1582.2877197265625
7.3537499,1275.6302490234375
7.356249900000001,1275.9041748046875
7.3587499,1542.3233642578125
7.361249900000001,1860.8587646484375
7.3637499,1999.2869873046875
7.366249900000001,1820.029541015625
7.3687499,1456.023681640625
7.3712499000000005,1234.4189453125
7.373749900000001,1341.53515625
7.3762499,1656.028076171875
7.378749900000001,1938.62255859375
7.3812499,1977.8980712890625
7.383749900000001,1701.718505859375
7.3862499,1361.3748779296875
7.3887499000000005,1249.0999755859375
7.391249900000001,1446.47998046875
7.3937499,1776.583984375
7.396249900000001,1995.46728515625
7.3987499,1922.973876953125
7.401249900000001,1578.17919921875
7.4037499,1273.143310546875
7.406249900000001,1277.1146240234375
7.4087499,1546.291748046875
7.4112499000000005,1864.4334716796875
7.413749900000001,1999.3468017578125
7.4162499,1815.2774658203125
7.418749900000001,1452.2220458984375
7.4212499,1232.5777587890625
7.423749900000001,1341.462158203125
7.4262499,1655.769775390625
7.428749900000001,1936.415771484375
7.4312499,1972.1326904296875
7.4337499000000005,1692.7061767578125
7.436249900000001,1354.1649169921875
7.4387499,1242.73193359375
7.441249900000001,1440.385498046875
7.4437499,1770.3084716796875
7.446249900000001,1988.246826171875
7.4487499,1913.99755859375
7.4512499000000005,1568.798095703125
7.453749900000001,1266.638427734375
7.4562499,1273.310791015625
7.458749900000001,1543.8486328125
7.4612499,1861.87890625
7.463749900000001,1995.1031494140625
7.4662499,1809.282470703125
7.468749900000001,1447.426025390625
7.4712499,1230.9407958984375
7.4737499000000005,1343.3526611328125
7.476249900000001,1659.882080078125
7.4787499,1940.105712890625
7.481249900000001,1972.484619140625
7.4837499,1690.3876953125
7.486249900000001,1352.3101806640625
7.4887499,1244.4481201171875
7.491249900000001,1464.758544921875
7.4937499,1794.0068359375
7.4962499000000005,1991.00537109375
7.498749900000001,1881.404296875
7.5012499,1525.723388671875
7.503749900000001,1227.1787109375
7.5062499,1235.9429931640625
7.508749900000001,1508.75439453125
7.5112499,1829.803466796875
7.5137499000000005,1965.8427734375
7.516249900000001,1782.274169921875
7.5187499,1425.8193359375
7.521249900000001,1216.2554931640625
7.5237499,1334.804443359375
7.526249900000001,1655.8436279296875
7.5287499,1937.875
7.531249900000001,1970.7000732421875
7.5337499,1688.360107421875
7.5362499000000005,1350.6881103515625
7.538749900000001,1247.9505615234375
7.5412499,1452.560546875
7.543749900000001,1783.848388671875
7.5462499,1997.6787109375
7.548749900000001,1915.742919921875
7.5512499,1565.5943603515625
7.553749900000001,1265.6754150390625
7.5562499,1276.7403564453125
7.5587499000000005,1550.1922607421875
7.561249900000001,1866.953857421875
7.5637499,1994.5631103515625
7.566249900000001,1802.050537109375
7.5687499,1441.6405029296875
7.571249900000001,1230.912353515625
7.5737499,1349.5299072265625
7.5762499000000005,1668.6239013671875
7.578749900000001,1946.499267578125
7.5812499,1972.7994384765625
7.583749900000001,1684.4395751953125
7.5862499,1347.5516357421875
7.588749900000001,1245.8414306640625
7.5912499,1450.673095703125
7.593749900000001,1781.138427734375
7.5962499,1992.710693359375
7.5987499000000005,1907.36865234375
7.601249900000001,1556.6949462890625
7.6037499,1259.7559814453125
7.606249900000001,1276.204833984375
7.6087499,1554.163818359375
7.611249900000001,1872.93115234375
7.6137499,1999.9449462890625
7.616249900000001,1804.7559814453125
7.6187499,1443.8048095703125
7.6212499000000005,1235.8438720703125
7.623749900000001,1357.275146484375
7.6262499,1677.020263671875
7.628749900000001,1953.21630859375
7.6312499,1975.97314453125
7.633749900000001,1684.3785400390625
7.6362499,1347.5028076171875
7.6387499000000005,1248.40234375
7.641249900000001,1455.921875
7.6437499,1787.53759765625
7.646249900000001,1999.0301513671875
7.6487499,1913.024169921875
7.651249900000001,1562.6192626953125
7.6537499,1266.6954345703125
7.656249900000001,1286.9564208984375
7.6587499,1566.9652099609375
7.6612499000000005,1883.772216796875
7.663749900000001,2007.017822265625
7.6662499,1807.6142578125
7.668749900000001,1446.0914306640625
7.6712499,1237.6732177734375
7.673749900000001,1358.338623046875
7.6762499,1678.27099609375
7.678749900000001,1954.81689453125
7.6812499,1976.653564453125
7.6837499000000005,1684.3228759765625
7.686249900000001,1347.4583740234375
7.6887499,1251.9666748046875
7.691249900000001,1461.5733642578125
7.6937499,1792.65869140625
7.696249900000001,2000.5269775390625
7.6987499,1909.421630859375
7.7012499000000005,1556.537353515625
7.703749900000001,1262.829833984375
7.7062499,1285.663818359375
7.708749900000001,1567.3310546875
7.7112499,1884.46484375
7.713749900000001,2004.971923828125
7.7162499,1802.3775634765625
7.718749900000001,1441.902099609375
7.7212499,1237.521728515625
7.7237499000000005,1362.2174072265625
7.726249900000001,1681.77392578125
7.7287499,1953.019287109375
7.731249900000001,1968.4154052734375
7.7337499,1672.5323486328125
7.736249900000001,1338.02587890625
7.7387499,1247.82080078125
7.741249900000001,1462.856689453125
7.743749900000001,1796.6854248046875
7.7462499000000005,2004.1484375
7.748749900000001,1909.918701171875
7.7512499,1553.534912109375
7.753749900000001,1260.427978515625
7.7562499,1284.1424560546875
7.758749900000001,1566.31396484375
7.7612499,1883.0511474609375
7.7637499000000005,2003.0408935546875
7.766249900000001,1798.6326904296875
7.7687499,1438.9061279296875
7.771249900000001,1245.1248779296875
7.7737499,1384.2999267578125
7.776249900000001,1713.8399658203125
7.7787499,1986.4720458984375
7.781249900000001,1997.377685546875
7.7837499,1694.502197265625
7.7862499000000005,1355.40185546875
7.788749900000001,1261.521484375
7.7912499,1472.8172607421875
7.793749900000001,1802.65380859375
7.7962499,2005.322998046875
7.798749900000001,1907.45849609375
7.8012499,1551.966796875
7.803749900000001,1261.7734375
7.806249900000001,1290.418701171875
7.8087499000000005,1574.93505859375
7.811249900000001,1889.548095703125
7.8137499,2004.238525390625
7.816249900000001,1795.5908203125
7.8187499,1436.47265625
7.821249900000001,1237.778076171875
7.8237499,1368.222412109375
7.8262499000000005,1690.3779296875
7.828749900000001,1959.90234375
7.8312499,1970.921875
7.833749900000001,1671.9375
7.8362499,1337.550048828125
7.838749900000001,1251.6400146484375
7.8412499,1467.9119873046875
7.843749900000001,1797.7296142578125
7.8462499,1998.583740234375
7.8487499000000005,1896.8670654296875
7.851249900000001,1539.293701171875
7.8537499,1252.034912109375
7.856249900000001,1282.6279296875
7.8587499,1567.50244140625
7.861249900000001,1882.4019775390625
7.8637499,1995.7216796875
7.866249900000001,1783.9774169921875
7.868749900000001,1426.9820556640625
7.8712499000000005,1230.3857421875
7.873749900000001,1362.508544921875
7.8762499,1685.4068603515625
7.878749900000001,1955.12548828125
7.8812499,1963.9005126953125
7.883749900000001,1662.5205078125
7.8862499,1330.0164794921875
7.8887499000000005,1248.6131591796875
7.891249900000001,1468.890625
7.8937499,1800.91259765625
7.896249900000001,2000.130126953125
7.8987499,1894.9041748046875
7.901249900000001,1534.5233154296875
7.9037499,1248.418701171875
7.906249900000001,1280.93505859375
7.9087499,1566.34814453125
7.9112499000000005,1879.87841796875
7.913749900000001,1991.102783203125
7.9162499,1779.0821533203125
7.918749900000001,1423.2657470703125
7.9212499,1232.0126953125
7.923749900000001,1368.610107421875
7.9262499,1693.2880859375
7.928749900000001,1961.030517578125
7.931249900000001,1965.0244140625
7.9337499000000005,1659.219482421875
7.936249900000001,1327.3756103515625
7.9387499,1247.1004638671875
7.941249900000001,1467.680419921875
7.9437499,1799.54443359375
7.946249900000001,1997.6356201171875
7.9487499,1890.9085693359375
7.9512499000000005,1519.126953125
7.953749900000001,1251.901611328125
7.9562499,1311.7213134765625
7.958749900000001,1608.777099609375
7.9612499,1914.4217529296875
7.963749900000001,2016.737548828125
7.9662499,1796.3900146484375
7.968749900000001,1437.112060546875
7.9712499,1243.689697265625
7.9737499000000005,1378.351806640625
7.976249900000001,1700.08154296875
7.9787499,1963.865234375
7.981249900000001,1964.4921875
7.9837499,1657.793701171875
7.986249900000001,1326.2349853515625
7.9887499,1249.18798828125
7.991249900000001,1471.150390625
7.993749900000001,1801.120361328125
7.9962499000000005,1995.6962890625
7.998749900000001,1885.5570068359375
8.0012499,1525.045654296875
8.003749899999999,1244.8365478515625
8.0062499,1285.0693359375
8.0087499,1573.85546875
8.0112499,1884.88427734375
8.013749899999999,1989.3074951171875
8.0162499,1769.8460693359375
8.0187499,1415.8768310546875
8.021249899999999,1228.9014892578125
8.0237499,1369.521240234375
8.0262499,1693.6170654296875
8.0287499,1957.693603515625
8.031249899999999,1957.554931640625
8.0337499,1651.6439208984375
8.0362499,1321.315185546875
8.0387499,1249.0521240234375
8.0412499,1467.441650390625
8.0437499,1785.1533203125
8.0462499,1969.1226806640625
8.048749899999999,1853.6982421875
8.0512499,1496.7586669921875
8.0537499,1225.406982421875
8.0562499,1276.1256103515625
8.0587499,1572.9005126953125
8.0612499,1887.3204345703125
8.0637499,1993.25634765625
8.066249899999999,1774.005126953125
8.0687499,1419.2041015625
8.0712499,1233.9632568359375
8.0737499,1374.7706298828125
8.076249899999999,1697.616455078125
8.0787499,1959.0931396484375
8.0812499,1956.87451171875
8.083749899999999,1650.4996337890625
8.0862499,1320.3997802734375
8.0887499,1252.7198486328125
8.0912499,1480.575927734375
8.093749899999999,1809.86083984375
8.0962499,1999.888671875
8.0987499,1884.31103515625
8.1012499,1524.048828125
8.1037499,1248.2391357421875
8.1062499,1294.59130859375
8.1087499,1586.273193359375
8.111249899999999,1895.818603515625
8.1137499,1996.4549560546875
8.1162499,1773.763916015625
8.1187499,1419.0111083984375
8.1212499,1238.0089111328125
8.1237499,1382.607177734375
8.1262499,1706.0858154296875
8.128749899999999,1965.46875
8.1312499,1959.375
8.1337499,1650.300048828125
8.1362499,1320.2401123046875
8.138749899999999,1255.9921875
8.1412499,1485.793701171875
8.1437499,1815.43505859375
8.146249899999999,2003.3480224609375
8.1487499,1884.87841796875
8.1512499,1523.9027099609375
8.1537499,1249.3221435546875
8.156249899999999,1297.457763671875
8.1587499,1589.3662109375
8.1612499,1896.693115234375
8.1637499,1994.554443359375
8.1662499,1769.843505859375
8.1687499,1415.8748779296875
8.1712499,1237.699951171875
8.173749899999999,1382.9599609375
8.1762499,1704.76806640625
8.1787499,1961.614501953125
8.1812499,1952.2916259765625
8.1837499,1643.2333984375
8.1862499,1314.5867919921875
8.1887499,1253.66943359375
8.191249899999999,1484.3355712890625
8.1937499,1811.8685302734375
8.1962499,1997.294921875
8.1987499,1876.8359375
8.201249899999999,1516.8687744140625
8.2037499,1246.2950439453125
8.2062499,1299.236083984375
8.208749899999999,1592.989013671875
8.2112499,1898.791259765625
8.2137499,1993.0330810546875
8.2162499,1765.2265625
8.218749899999999,1412.1812744140625
8.2212499,1236.9449462890625
8.2237499,1385.555908203125
8.2262499,1708.4447021484375
8.2287499,1963.5556640625
8.2312499,1952.24462890625
8.2337499,1641.9957275390625
8.236249899999999,1313.5965576171875
8.2387499,1254.477294921875
8.2412499,1485.581787109375
8.2437499,1811.66552734375
8.2462499,1995.13232421875
8.2487499,1872.9058837890625
8.2512499,1513.9246826171875
8.253749899999999,1246.539794921875
8.2562499,1303.23193359375
8.2587499,1597.78564453125
8.2612499,1903.428466796875
8.263749899999999,1996.94287109375
8.2662499,1769.154296875
8.2687499,1415.323486328125
8.271249899999999,1243.058837890625
8.2737499,1392.6470947265625
8.2762499,1714.317626953125
8.2787499,1966.254150390625
8.281249899999999,1951.8033447265625
8.2837499,1640.2427978515625
8.2862499,1312.1942138671875
8.2887499,1257.75537109375
8.2912499,1492.8043212890625
8.2937499,1819.443603515625
8.2962499,2000.35498046875
8.298749899999999,1875.484130859375
8.3012499,1515.787353515625
8.3037499,1249.829833984375
8.3062499,1307.4638671875
8.3087499,1601.37109375
8.3112499,1906.296875
8.3137499,2008.4375
8.316249899999999,1790.75
8.3187499,1432.5999755859375
8.3212499,1262.8800048828125
8.3237499,1414.303955078125
8.326249899999999,1734.643310546875
8.3287499,1982.5146484375
8.3312499,1963.01171875
8.333749899999999,1648.0093994140625
8.3362499,1318.4075927734375
8.3387499,1264.3260498046875
8.3412499,1497.2608642578125
8.343749899999999,1820.40869140625
8.3462499,1997.3270263671875
8.3487499,1868.061767578125
8.3512499,1507.24951171875
8.3537499,1243.7996826171875
8.3562499,1304.23974609375
8.3587499,1598.7918701171875
8.361249899999999,1899.633544921875
8.3637499,1985.906982421875
8.3662499,1752.7255859375
8.3687499,1402.1805419921875
8.3712499,1366.9444580078125
8.3737499,1543.95556640625
8.3762499,1848.96435546875
8.378749899999999,2049.17138671875
8.3812499,1988.337158203125
8.3837499,1648.6697998046875
8.3862499,1319.1358642578125
8.388749899999999,1292.3087158203125
8.3912499,1540.047119140625
8.3937499,1855.437744140625
8.396249899999999,2006.9501953125
8.3987499,1848.16015625
8.4012499,1480.92822265625
8.4037499,1241.342529296875
8.406249899999999,1328.073974609375
8.4087499,1631.8592529296875
8.4112499,1920.287353515625
8.4137499,1978.2298583984375
8.4162499,1741.98388671875
8.4187499,1393.587158203125
8.4212499,1235.0697021484375
8.423749899999999,1398.255859375
8.4262499,1727.204833984375
8.4287499,1979.763916015625
8.4312499,1961.8111572265625
8.4337499,1649.2490234375
8.4362499,1319.3992919921875
8.4387499,1280.7193603515625
8.441249899999999,1529.775634765625
8.4437499,1862.2205810546875
8.4462499,2047.176513671875
8.4487499,1924.7412109375
8.451249899999999,1573.1929931640625
8.4537499,1318.1544189453125
8.4562499,1397.3236083984375
8.458749899999999,1709.458984375
8.4612499,2006.767333984375
8.4637499,2094.2138671875
8.4662499,1860.9710693359375
8.468749899999999,1491.576904296875
8.4712499,1329.0616455078125
8.4737499,1491.0494384765625
8.4762499,1815.439697265625
8.4787499,2056.751953125
8.4812499,2025.8016357421875
8.4837499,1702.44140625
8.486249899999999,1362.153076171875
8.4887499,1319.322509765625
8.4912499,1563.258056640625
8.4937499,1887.406494140625
8.4962499,2061.3251953125
8.4987499,1926.66015625
8.5012499,1566.128173828125
8.503749899999999,1306.70263671875
8.5062499,1382.3621826171875
8.5087499,1691.689697265625
8.5112499,1991.7518310546875
8.513749899999999,2081.201416015625
8.5162499,1852.76123046875
8.5187499,1494.6090087890625
8.521249899999999,1349.2872314453125
8.5237499,1526.2298583984375
8.5262499,1858.583984375
8.5287499,2102.067138671875
8.531249899999999,2079.253662109375
8.5337499,1765.4029541015625
8.5362499,1432.92236328125
8.5387499,1395.9378662109375
8.5412499,1642.950439453125
8.5437499,1956.160400390625
8.5462499,2121.12841796875
8.548749899999999,1977.9027099609375
8.5512499,1609.5220947265625
8.5537499,1342.0177001953125
8.5562499,1407.6141357421875
8.5587499,1703.4913330078125
8.5612499,1993.7930908203125
8.5637499,2062.234619140625
8.566249899999999,1808.9876708984375
8.5687499,1447.190185546875
8.5712499,1285.55224609375
8.5737499,1446.2418212890625
8.5762499,1767.9935302734375
8.5787499,2005.994873046875
8.5812499,1966.995849609375
8.583749899999999,1625.9967041015625
8.5862499,1300.79736328125
8.5887499,1254.837890625
8.5912499,1493.6702880859375
8.593749899999999,1815.13623046875
8.5962499,1980.1090087890625
8.5987499,1833.687255859375
8.6012499,1468.1497802734375
8.6037499,1220.5198974609375
8.6062499,1299.2159423828125
8.6087499,1605.1728515625
8.611249899999999,1903.73828125
8.6137499,1973.9906005859375
8.6162499,1720.592529296875
8.6187499,1376.4739990234375
8.6212499,1225.379150390625
8.6237499,1392.3033447265625
8.6262499,1717.042724609375
8.628749899999999,1954.834228515625
8.6312499,1911.867431640625
8.6337499,1577.6939697265625
8.6362499,1262.1551513671875
8.6387499,1226.924072265625
8.6412499,1471.3392333984375
8.6437499,1791.871337890625
8.646249899999999,1950.297119140625
8.6487499,1794.0377197265625
8.6512499,1435.230224609375
8.6537499,1187.9842529296875
8.656249899999999,1262.1873779296875
8.6587499,1561.14990234375
8.6612499,1853.119873046875
8.6637499,1916.89599609375
8.6662499,1657.716796875
8.6687499,1326.1734619140625
8.6712499,1179.7388916015625
8.673749899999999,1346.7911376953125
8.6762499,1670.032958984375
8.6787499,1905.4263916015625
8.6812499,1860.1412353515625
8.6837499,1526.7130126953125
8.6862499,1221.3704833984375
8.6887499,1197.096435546875
8.691249899999999,1450.67724609375
8.6937499,1776.5418701171875
8.6962499,1935.83349609375
8.6987499,1777.6668701171875
8.7012499,1422.133544921875
8.7037499,1180.5069580078125
8.7062499,1261.8055419921875
8.708749899999999,1567.4444580078125
8.7112499,1863.3555908203125
8.7137499,1926.6844482421875
8.7162499,1666.3475341796875
8.718749899999999,1333.0780029296875
8.7212499,1190.662353515625
8.7237499,1364.3299560546875
8.7262499,1692.4639892578125
8.7287499,1927.5712890625
8.7312499,1876.45703125
8.7337499,1533.9656982421875
8.736249899999999,1227.172607421875
8.7387499,1194.338134765625
8.7412499,1436.2705078125
8.7437499,1748.0164794921875
8.7462499,1891.61328125
8.7487499,1717.890625
8.7512499,1374.3125
8.753749899999999,1134.85009765625
8.7562499,1210.4801025390625
8.7587499,1509.7841796875
8.7612499,1803.2274169921875
8.7637499,1869.5819091796875
8.7662499,1618.66552734375
8.7687499,1294.9324951171875
8.771249899999999,1169.5460205078125
8.7737499,1360.6368408203125
8.7762499,1704.509521484375
8.7787499,1952.207763671875
8.781249899999999,1910.3662109375
8.7837499,1577.8929443359375
8.7862499,1262.3143310546875
8.7887499,1247.8515625
8.7912499,1517.6812744140625
8.7937499,1853.7451171875
8.7962499,2021.99609375
8.798749899999999,1868.596923828125
8.8012499,1498.277587890625
8.8037499,1255.822021484375
8.8062499,1349.4576416015625
8.8087499,1669.566162109375
8.8112499,1968.2529296875
8.8137499,2027.6024169921875
8.816249899999999,1757.2818603515625
8.8187499,1405.8255615234375
8.8212499,1248.060546875
8.8237499,1400.848388671875
8.8262499,1707.6787109375
8.8287499,1926.1429443359375
8.8312499,1866.9144287109375
8.833749899999999,1530.131591796875
8.8362499,1224.1053466796875
8.8387499,1211.4842529296875
8.8412499,1473.9874267578125
8.843749899999999,1802.5899658203125
8.8462499,1958.4720458984375
8.8487499,1796.177734375
8.8512499,1436.9422607421875
8.8537499,1211.3538818359375
8.8562499,1324.0831298828125
8.8587499,1657.866455078125
8.861249899999999,1960.6932373046875
8.8637499,2004.154541015625
8.8662499,1726.923583984375
8.8687499,1381.5389404296875
8.8712499,1282.43115234375
8.8737499,1480.14501953125
8.8762499,1824.316162109375
8.878749899999999,2065.2529296875
8.8812499,2019.40234375
8.8837499,1687.5218505859375
8.8862499,1362.41748046875
8.8887499,1352.134033203125
8.8912499,1627.50732421875
8.8937499,1945.205810546875
8.896249899999999,2104.16455078125
8.8987499,1942.931640625
8.9012499,1568.745361328125
8.9037499,1322.1962890625
8.906249899999999,1417.3570556640625
8.9087499,1737.685546875
8.9112499,2025.5484619140625
8.9137499,2076.638916015625
8.9162499,1803.3111572265625
8.9187499,1442.64892578125
8.9212499,1301.919189453125
8.923749899999999,1484.1353759765625
8.9262499,1815.7083740234375
8.9287499,2042.5667724609375
8.9312499,1975.6534423828125
8.9337499,1622.3228759765625
8.9362499,1297.8582763671875
8.9387499,1276.6866455078125
8.941249899999999,1534.9493408203125
8.9437499,1857.5595703125
8.9462499,2002.84765625
8.9487499,1823.878173828125
8.9512499,1459.1025390625
8.9537499,1219.68212890625
8.9562499,1309.5457763671875
8.958749899999999,1621.4365234375
8.9612499,1912.54931640625
8.9637499,1960.239501953125
8.9662499,1683.7916259765625
8.968749899999999,1347.0333251953125
8.9712499,1217.0267333984375
8.9737499,1403.42138671875
8.9762499,1737.937255859375
8.9787499,1969.349853515625
8.9812499,1907.679931640625
8.9837499,1561.5439453125
8.986249899999999,1249.2352294921875
8.9887499,1240.9881591796875
8.9912499,1510.1905517578125
8.9937499,1840.952392578125
8.9962499,1992.56201171875
8.9987499,1819.2496337890625
9.0012499,1455.3997802734375
9.003749899999999,1222.519775390625
9.0062499,1321.8157958984375
9.0087499,1641.652587890625
9.0112499,1938.522216796875
9.0137499,1991.017822265625
9.0162499,1718.8143310546875
9.0187499,1375.051513671875
9.021249899999999,1250.041259765625
9.0237499,1446.032958984375
9.0262499,1787.826416015625
9.0287499,2022.461181640625
9.031249899999999,1962.76904296875
9.0337499,1618.815185546875
9.0362499,1300.4521484375
9.0387499,1292.961669921875
9.0412499,1564.16943359375
9.0437499,1889.935546875
9.0462499,2034.948486328125
9.048749899999999,1853.1588134765625
9.0512499,1482.527099609375
9.0537499,1244.021728515625
9.0562499,1337.41748046875
9.0587499,1648.9339599609375
9.0612499,1933.947265625
9.0637499,1970.7578125
9.066249899999999,1682.206298828125
9.0687499,1345.7650146484375
9.0712499,1214.2120361328125
9.0737499,1396.36962890625
9.0762499,1723.4957275390625
9.0787499,1944.99658203125
9.0812499,1872.3973388671875
9.083749899999999,1519.1177978515625
9.0862499,1215.2943115234375
9.0887499,1209.0355224609375
9.0912499,1475.428466796875
9.093749899999999,1800.542724609375
9.0962499,1944.4342041015625
9.0987499,1763.9473876953125
9.1012499,1411.157958984375
9.1037499,1186.1263427734375
9.1062499,1289.7010498046875
9.1087499,1610.160888671875
9.111249899999999,1903.328857421875
9.1137499,1947.6630859375
9.1162499,1667.9305419921875
9.1187499,1334.344482421875
9.1212499,1213.675537109375
9.1237499,1407.140380859375
9.1262499,1734.1123046875
9.128749899999999,1953.08984375
9.1312499,1879.8719482421875
9.1337499,1531.0975341796875
9.1362499,1226.0780029296875
9.1387499,1231.46240234375
9.1412499,1510.369873046875
9.1437499,1843.095947265625
9.146249899999999,1990.076904296875
9.1487499,1808.4615478515625
9.1512499,1446.769287109375
9.1537499,1217.6153564453125
9.156249899999999,1318.892333984375
9.1587499,1634.7138671875
9.1612499,1921.571044921875
9.1637499,1958.6568603515625
9.1662499,1672.5255126953125
9.1687499,1338.0203857421875
9.1712499,1217.2164306640625
9.173749899999999,1411.5731201171875
9.1762499,1746.6585693359375
9.1787499,1970.52685546875
9.1812499,1896.4215087890625
9.1837499,1535.337158203125
9.1862499,1228.269775390625
9.1887499,1194.8157958984375
9.191249899999999,1433.6527099609375
9.1937499,1740.72216796875
9.1962499,1879.3778076171875
9.1987499,1705.7022705078125
9.2012499,1364.5618896484375
9.2037499,1158.6495361328125
9.2062499,1278.319580078125
9.208749899999999,1606.2557373046875
9.2112499,1900.20458984375
9.2137499,1943.763671875
9.2162499,1666.4110107421875
9.218749899999999,1333.1287841796875
9.2212499,1223.903076171875
9.2237499,1430.9224853515625
9.2262499,1774.738037109375
9.2287499,2005.59033203125
9.2312499,1938.872314453125
9.2337499,1592.89794921875
9.236249899999999,1284.9183349609375
9.2387499,1292.134765625
9.2412499,1575.10791015625
9.2437499,1900.88623046875
9.2462499,2046.30908203125
9.2487499,1865.447265625
9.2512499,1492.3577880859375
9.253749899999999,1267.88623046875
9.2562499,1381.509033203125
9.2587499,1709.4072265625
9.2612499,1998.125732421875
9.2637499,2039.900634765625
9.2662499,1760.1204833984375
9.2687499,1408.096435546875
9.271249899999999,1294.877197265625
9.2737499,1501.501708984375
9.2762499,1840.4013671875
9.2787499,2062.521240234375
9.281249899999999,1987.0169677734375
9.2837499,1634.213623046875
9.2862499,1319.5709228515625
9.2887499,1322.0567626953125
9.2912499,1597.6453857421875
9.2937499,1917.31640625
9.2962499,2050.653076171875
9.298749899999999,1855.722412109375
9.3012499,1484.5780029296875
9.3037499,1255.262451171875
9.3062499,1358.6099853515625
9.3087499,1673.68798828125
9.3112499,1954.75048828125
9.3137499,1984.00048828125
9.316249899999999,1693.200439453125
9.3187499,1354.5604248046875
9.3212499,1264.6483154296875
9.3237499,1482.11865234375
9.3262499,1815.6949462890625
9.3287499,2029.5560302734375
9.3312499,1944.4449462890625
9.333749899999999,1584.7559814453125
9.3362499,1277.40478515625
9.3387499,1283.923828125
9.3412499,1561.739013671875
9.343749899999999,1886.191162109375
9.3462499,2021.35302734375
9.3487499,1830.2823486328125
9.3512499,1464.2259521484375
9.3537499,1245.980712890625
9.3562499,1362.78466796875
9.3587499,1689.6278076171875
9.361249899999999,1976.102294921875
9.3637499,2009.681884765625
9.3662499,1722.1455078125
9.3687499,1377.7164306640625
9.3712499,1268.3731689453125
9.3737499,1473.8985595703125
9.3762499,1810.118896484375
9.378749899999999,2027.0950927734375
9.3812499,1943.276123046875
9.3837499,1585.8209228515625
9.3862499,1279.2567138671875
9.3887499,1285.00537109375
9.3912499,1557.80419921875
9.3937499,1875.843505859375
9.396249899999999,2010.0748291015625
9.3987499,1820.0599365234375
9.4012499,1456.0479736328125
9.4037499,1233.638427734375
9.406249899999999,1338.310791015625
9.4087499,1646.8486328125
9.4112499,1916.4788818359375
9.4137499,1932.983154296875
9.4162499,1632.986572265625
9.4187499,1306.3892822265625
9.4212499,1196.71142578125
9.423749899999999,1391.7691650390625
9.4262499,1716.015380859375
9.4287499,1923.412353515625
9.4312499,1833.1298828125
9.4337499,1476.303955078125
9.4362499,1185.84326171875
9.4387499,1199.674560546875
9.441249899999999,1472.939697265625
9.4437499,1789.5517578125
9.4462499,1915.6414794921875
9.4487499,1719.313232421875
9.4512499,1375.4505615234375
9.4537499,1167.96044921875
9.4562499,1282.368408203125
9.458749899999999,1596.894775390625
9.4612499,1871.9158935546875
9.4637499,1897.332763671875
9.4662499,1609.666259765625
9.468749899999999,1287.7330322265625
9.4712499,1190.1864013671875
9.4737499,1396.549072265625
9.4762499,1726.83935546875
9.4787499,1938.271484375
9.4812499,1853.817138671875
9.4837499,1504.4537353515625
9.486249899999999,1215.1629638671875
9.4887499,1232.330322265625
9.4912499,1507.46435546875
9.4937499,1824.571533203125
9.4962499,1952.2572021484375
9.4987499,1759.6058349609375
9.5012499,1407.6846923828125
9.503749899999999,1201.747802734375
9.5062499,1319.998291015625
9.5087499,1635.398681640625
9.5112499,1909.9189453125
9.5137499,1935.13525390625
9.5162499,1649.9083251953125
9.5187499,1319.9266357421875
9.521249899999999,1224.7413330078125
9.5237499,1432.7930908203125
9.5262499,1761.4345703125
9.5287499,1970.147705078125
9.531249899999999,1884.5181884765625
9.5337499,1536.8145751953125
9.5362499,1245.8516845703125
9.5387499,1269.2813720703125
9.5412499,1550.22509765625
9.5437499,1868.780029296875
9.5462499,1997.0240478515625
9.548749899999999,1805.019287109375
9.5512499,1444.0155029296875
9.5537499,1239.21240234375
9.5562499,1363.169921875
9.5587499,1683.736083984375
9.5612499,1961.18896484375
9.5637499,1987.5511474609375
9.566249899999999,1701.8409423828125
9.5687499,1361.4727783203125
9.5712499,1268.17822265625
9.5737499,1481.74267578125
9.5762499,1814.994140625
9.5787499,2025.79541015625
9.5812499,1939.236328125
9.583749899999999,1588.989013671875
9.5862499,1290.9913330078125
9.5887499,1313.39306640625
9.5912499,1597.114501953125
9.593749899999999,1915.0916748046875
9.5962499,2042.67333984375
9.5987499,1848.338623046875
9.6012499,1478.870849609375
9.6037499,1273.296630859375
9.6062499,1401.6373291015625
9.6087499,1728.10986328125
9.611249899999999,2004.287841796875
9.6137499,2026.4302978515625
9.6162499,1734.7442626953125
9.6187499,1387.79541015625
9.6212499,1294.8363037109375
9.6237499,1510.8690185546875
9.6262499,1845.09521484375
9.628749899999999,2054.076171875
9.6312499,1962.8609619140625
9.6337499,1608.48876953125
9.6362499,1308.990966796875
9.6387499,1332.9927978515625
9.6412499,1617.394287109375
9.6437499,1932.3154296875
9.646249899999999,2053.65234375
9.6487499,1849.3218994140625
9.6512499,1479.45751953125
9.6537499,1272.7659912109375
9.656249899999999,1400.61279296875
9.6587499,1726.8902587890625
9.6612499,2002.1123046875
9.6637499,2018.6898193359375
9.6662499,1713.5518798828125
9.6687499,1370.841552734375
9.6712499,1269.273193359375
9.673749899999999,1478.0185546875
9.6762499,1810.81494140625
9.6787499,2019.251953125
9.6812499,1926.6015625
9.6837499,1572.481201171875
9.6862499,1279.385009765625
9.6887499,1309.907958984375
9.691249899999999,1601.726318359375
9.6937499,1919.981201171875
9.6962499,2039.5849609375
9.6987499,1831.0679931640625
9.7012499,1464.8543701171875
9.7037499,1260.68359375
9.7062499,1391.9468994140625
9.708749899999999,1720.5574951171875
9.7112499,1996.046142578125
9.7137499,2010.8369140625
9.7162499,1711.069580078125
9.718749899999999,1368.855712890625
9.7212499,1280.2845458984375
9.7237499,1500.82763671875
9.7262499,1836.462158203125
9.7287499,2041.769775390625
9.7312499,1942.015869140625
9.7337499,1580.6126708984375
9.736249899999999,1285.6900634765625
9.7387499,1314.9521484375
9.7412499,1603.9617919921875
9.7437499,1919.969482421875
9.7462499,2033.775634765625
9.7487499,1818.6204833984375
9.7512499,1454.8963623046875
9.753749899999999,1252.1170654296875
9.7562499,1381.293701171875
9.7587499,1704.635009765625
9.7612499,1974.7080078125
9.7637499,1981.7664794921875
9.7662499,1675.813232421875
9.7687499,1340.650634765625
9.771249899999999,1256.5205078125
9.7737499,1479.41650390625
9.7762499,1819.9332275390625
9.7787499,2010.546630859375
9.781249899999999,1885.83740234375
9.7837499,1532.669921875
9.7862499,1248.5360107421875
9.7887499,1288.4288330078125
9.7912499,1584.943115234375
9.7937499,1904.9544677734375
9.7962499,2021.3636474609375
9.798749899999999,1808.69091796875
9.8012499,1446.9527587890625
