# Time (seconds),Voltage
0.0012499,1397
0.0037499,1445
0.0062499,1743
0.0087499,2070
0.0112499,2136
0.0137499,1898
0.016249899999999998,1592
0.0187499,1458
0.021249900000000002,1590
0.023749899999999997,1909
0.0262499,2144
0.028749900000000002,2068
0.031249899999999997,1759
0.0337499,1477
0.0362499,1424
0.0387499,1633
0.0412499,1952
0.0437499,2096
0.0462499,1919
0.0487499,1592
0.0512499,1379
0.053749899999999996,1424
0.0562499,1708
0.0587499,2012
0.061249899999999996,2067
0.0637499,1822
0.0662499,1508
0.0687499,1368
0.0712499,1501
0.0737499,1828
0.0762499,2062
0.0787499,1975
0.0812499,1667
0.0837499,1393
0.0862499,1345
0.0887499,1563
0.0912499,1902
0.0937499,2073
0.0962499,1919
0.0987499,1595
0.1012499,1366
0.1037499,1405
0.1062499,1696
0.1087499,2062
0.1112499,2215
0.1137499,2109
0.1162499,1975
0.1187499,2041
0.1212499,2359
0.1237499,2824
0.1262499,3140
0.1287499,3059
0.1312499,2640
0.1337499,2157
0.1362499,1864
0.1387499,1812
0.1412499,1878
0.1437499,1825
0.1462499,1551
0.1487499,1213
0.1512499,1034
0.1537499,1131
0.1562499,1459
0.1587499,1806
0.1612499,1901
0.1637499,1687
0.1662499,1393
0.1687499,1269
0.1712499,1417
0.1737499,1746
0.17624990000000001,2007
0.1787499,1972
0.1812499,1677
0.1837499,1403
0.1862499,1353
0.1887499,1553
0.1912499,1870
0.1937499,2033
0.1962499,1880
0.1987499,1567
0.2012499,1351
0.2037499,1392
0.2062499,1674
0.20874990000000002,1994
0.2112499,2065
0.2137499,1828
0.2162499,1511
0.2187499,1353
0.2212499,1467
0.2237499,1772
0.2262499,2027
0.2287499,1990
0.2312499,1711
0.2337499,1442
0.2362499,1382
0.23874990000000001,1579
0.2412499,1902
0.2437499,2072
0.2462499,1923
0.2487499,1609
0.2512499,1395
0.25374990000000003,1435
0.25624990000000003,1724
0.25874990000000003,2043
0.26124990000000003,2101
0.26374990000000004,1854
0.26624990000000004,1533
0.26874990000000004,1377
0.27124990000000004,1496
0.27374990000000005,1817
0.27624990000000005,2086
0.27874990000000005,2060
0.28124990000000005,1785
0.28374990000000005,1508
0.28624990000000006,1443
0.28874990000000006,1637
0.2912499,1956
0.2937499,2125
0.2962499,1977
0.2987499,1675
0.3012499,1458
0.3037499,1487
0.3062499,1754
0.3087499,2073
0.3112499,2160
0.3137499,1948
0.31624990000000003,1653
0.31874990000000003,1514
0.32124990000000003,1625
0.32374990000000003,1932
0.32624990000000004,2184
0.32874990000000004,2147
0.33124990000000004,1877
0.33374990000000004,1625
0.33624990000000005,1579
0.33874990000000005,1778
0.34124990000000005,2110
0.34374990000000005,2292
0.34624990000000005,2152
0.34874990000000006,1838
0.35124990000000006,1616
0.3537499,1646
0.3562499,1906
0.3587499,2212
0.3612499,2286
0.3637499,2056
0.3662499,1745
0.3687499,1608
0.3712499,1730
0.3737499,2049
0.3762499,2313
0.37874990000000003,2226
0.38124990000000003,1906
0.38374990000000003,1625
0.38624990000000003,1535
0.38874990000000004,1712
0.39124990000000004,2033
0.39374990000000004,2205
0.39624990000000004,2043
0.39874990000000005,1693
0.40124990000000005,1427
0.40374990000000005,1430
0.40624990000000005,1690
0.40874990000000005,2006
0.41124990000000006,2083
0.41374990000000006,1846
0.41624990000000006,1517
0.4187499,1350
0.4212499,1448
0.4237499,1753
0.4262499,2017
0.4287499,1988
0.4312499,1701
0.4337499,1414
0.4362499,1330
0.4387499,1513
0.44124990000000003,1832
0.44374990000000003,2015
0.44624990000000003,1883
0.44874990000000003,1566
0.45124990000000004,1321
0.45374990000000004,1332
0.45624990000000004,1593
0.45874990000000004,1909
0.46124990000000005,1994
0.46374990000000005,1774
0.46624990000000005,1464
0.46874990000000005,1310
0.47124990000000005,1419
0.47374990000000006,1728
0.47624990000000006,1986
0.47874990000000006,1957
0.4812499,1669
0.4837499,1358
0.4862499,1266
0.4887499,1450
0.4912499,1783
0.4937499,1993
0.4962499,1880
0.4987499,1585
0.5012499,1355
0.5037499000000001,1368
0.5062499,1622
0.5087499000000001,1930
0.5112499,2017
0.5137499,1795
0.5162499,1482
0.5187499,1327
0.5212499,1438
0.5237499,1745
0.5262499,1998
0.5287499,1954
0.5312499,1653
0.5337499,1358
0.5362499000000001,1285
0.5387499,1477
0.5412499000000001,1811
0.5437499,2012
0.5462499000000001,1891
0.5487499,1582
0.5512499000000001,1343
0.5537499,1353
0.5562499000000001,1606
0.5587499,1919
0.5612499000000001,2004
0.5637499,1772
0.5662499000000001,1445
0.5687499,1279
0.5712499000000001,1380
0.5737499,1691
0.5762499000000001,1970
0.5787499,1959
0.5812499,1683
0.5837499,1398
0.5862499,1318
0.5887499,1501
0.5912499,1828
0.5937499,2030
0.5962499,1904
0.5987499000000001,1588
0.6012499,1350
0.6037499000000001,1355
0.6062499,1592
0.6087499000000001,1896
0.6112499,1994
0.6137499000000001,1774
0.6162499,1464
0.6187499000000001,1308
0.6212499,1409
0.6237499000000001,1708
0.6262499,1977
0.6287499000000001,1964
0.6312499,1680
0.6337499000000001,1380
0.6362499,1290
0.6387499000000001,1474
0.6412499,1817
0.6437499,2033
0.6462499,1914
0.6487499,1604
0.6512499,1366
0.6537499,1368
0.6562499,1616
0.6587499,1930
0.6612499000000001,2027
0.6637499,1817
0.6662499000000001,1511
0.6687499,1351
0.6712499000000001,1450
0.6737499,1751
0.6762499000000001,2017
0.6787499,1999
0.6812499000000001,1725
0.6837499,1443
0.6862499000000001,1358
0.6887499,1540
0.6912499000000001,1877
0.6937499,2085
0.6962499000000001,1964
0.6987499,1654
0.7012499000000001,1429
0.7037499,1443
0.7062499,1679
0.7087499,1978
0.7112499,2078
0.7137499,1854
0.7162499,1521
0.7187499,1327
0.7212499,1413
0.7237499000000001,1716
0.7262499,1996
0.7287499000000001,1993
0.7312499,1712
0.7337499000000001,1406
0.7362499,1306
0.7387499000000001,1475
0.7412499,1795
0.7437499000000001,1994
0.7462499,1878
0.7487499000000001,1572
0.7512499,1326
0.7537499000000001,1324
0.7562499,1569
0.7587499000000001,1893
0.7612499,2007
0.7637499000000001,1799
0.7662499,1477
0.7687499000000001,1295
0.7712499,1380
0.7737499,1675
0.7762499,1943
0.7787499,1935
0.7812499,1658
0.7837499,1366
0.7862499000000001,1276
0.7887499,1455
0.7912499000000001,1795
0.7937499,2019
0.7962499000000001,1932
0.7987499,1677
0.8012499000000001,1548
0.8037499,1709
0.8062499000000001,2144
0.8087499,2661
0.8112499000000001,2955
0.8137499,2887
0.8162499000000001,2594
0.8187499,2313
0.8212499000000001,2212
0.8237499,2278
0.8262499000000001,2307
0.8287499,2054
0.8312499000000001,1548
0.8337499,1086
0.8362499,920
0.8387499,1092
0.8412499,1479
0.8437499,1762
0.8462499,1717
0.8487499000000001,1446
0.8512499,1221
0.8537499000000001,1234
0.8562499,1492
0.8587499000000001,1827
0.8612499,1954
0.8637499000000001,1754
0.8662499,1435
0.8687499000000001,1248
0.8712499,1337
0.8737499000000001,1638
0.8762499,1904
0.8787499000000001,1896
0.8812499,1653
0.8837499000000001,1359
0.8862499,1261
0.8887499000000001,1419
0.8912499,1746
0.8937499000000001,1964
0.8962499,1869
0.8987499,1571
0.9012499,1335
0.9037499,1345
0.9062499,1571
0.9087499,1865
0.9112499000000001,1964
0.9137499,1756
0.9162499000000001,1448
0.9187499,1279
0.9212499000000001,1366
0.9237499,1667
0.9262499000000001,1961
0.9287499,1972
0.9312499000000001,1701
0.9337499,1408
0.9362499000000001,1310
0.9387499,1471
0.9412499000000001,1793
0.9437499,2007
0.9462499000000001,1917
0.9487499,1621
0.9512499000000001,1368
0.9537499,1355
0.9562499000000001,1590
0.9587499,1912
0.9612499,2043
0.9637499,1853
0.9662499,1530
0.9687499,1334
0.9712499,1401
0.9737499000000001,1690
0.9762499,1980
0.9787499000000001,2006
0.9812499,1756
0.9837499000000001,1474
0.9862499,1374
0.9887499000000001,1530
0.9912499,1861
0.9937499000000001,2088
0.9962499,1996
0.9987499000000001,1696
1.0012499,1451
1.0037498999999999,1443
1.0062499,1680
1.0087499,2004
1.0112499,2131
1.0137498999999999,1943
1.0162499,1630
1.0187499,1451
1.0212499,1532
1.0237498999999999,1824
1.0262498999999998,2122
1.0287499,2155
1.0312499,1915
1.0337498999999999,1632
1.0362498999999998,1527
1.0387499,1679
1.0412499,2001
1.0437499,2218
1.0462498999999998,2128
1.0487499,1827
1.0512499,1574
1.0537499,1561
1.0562498999999999,1796
1.0587499,2122
1.0612499,2251
1.0637499,2060
1.0662498999999999,1733
1.0687499,1529
1.0712499,1577
1.0737499,1849
1.0762498999999999,2120
1.0787499,2123
1.0812499,1840
1.0837499,1517
1.0862498999999999,1385
1.0887499,1517
1.0912499,1825
1.0937499,2043
1.0962498999999999,1946
1.0987498999999998,1633
1.1012499,1374
1.1037499,1350
1.1062499,1558
1.1087498999999998,1841
1.1112499,1951
1.1137499,1756
1.1162499,1440
1.1187498999999999,1250
1.1212499,1313
1.1237499,1598
1.1262499,1890
1.1287498999999999,1925
1.1312499,1679
1.1337499,1388
1.1362499,1276
1.1387498999999999,1417
1.1412499,1732
1.1437499,1952
1.1462499,1861
1.1487498999999999,1556
1.1512499,1290
1.1537499,1261
1.1562499,1480
1.1587498999999999,1798
1.1612498999999998,1938
1.1637499,1767
1.1662499,1464
1.1687499,1279
1.1712498999999998,1350
1.1737499,1641
1.1762499,1922
1.1787499,1943
1.1812498999999999,1679
1.1837499,1368
1.1862499,1247
1.1887499,1393
1.1912498999999999,1719
1.1937499,1957
1.1962499,1882
1.1987499,1587
1.2012498999999999,1329
1.2037499,1306
1.2062499,1530
1.2087499,1859
1.2112498999999999,2019
1.2137499,1853
1.2162499,1517
1.2187499,1292
1.2212498999999999,1332
1.2237498999999998,1601
1.2262499,1886
1.2287499,1920
1.2312499,1675
1.2337498999999998,1380
1.2362499,1269
1.2387499,1417
1.2412499,1741
1.2437498999999999,1972
1.2462499,1888
1.2487499,1588
1.2512499,1326
1.2537498999999999,1298
1.2562499,1517
1.2587499,1824
1.2612499,1957
1.2637498999999999,1782
1.2662499,1466
1.2687499,1255
1.2712499,1311
1.2737498999999999,1596
1.2762499,1899
1.2787499,1944
1.2812499,1695
1.2837498999999999,1395
1.2862498999999998,1271
1.2887499,1406
1.2912499,1711
1.2937499,1935
1.2962498999999998,1859
1.2987499,1564
1.3012499,1305
1.3037499,1268
1.3062498999999999,1484
1.3087499,1806
1.3112499,1954
1.3137499,1791
1.3162498999999999,1477
1.3187499,1266
1.3212499,1310
1.3237499,1588
1.3262498999999999,1883
1.3287499,1930
1.3312499,1691
1.3337499,1397
1.3362498999999999,1264
1.3387499,1390
1.3412499,1685
1.3437499,1911
1.3462498999999999,1843
1.3487498999999998,1554
1.3512499,1300
1.3537499,1268
1.3562499,1484
1.3587498999999998,1809
1.3612499,1959
1.3637499,1757
1.3662499,1432
1.3687498999999999,1240
1.3712499,1321
1.3737499,1606
1.3762499,1927
1.3787498999999999,1975
1.3812499,1722
1.3837499,1411
1.3862499,1287
1.3887498999999999,1419
1.3912499,1735
1.3937499,1988
1.3962499,1936
1.3987498999999999,1643
1.4012499,1364
1.4037499,1311
1.4062499,1519
1.4087498999999999,1851
1.4112498999999998,2012
1.4137499,1856
1.4162499,1548
1.4187499,1343
1.4212498999999998,1380
1.4237499,1645
1.4262499,1932
1.4287499,1972
1.4312498999999999,1716
1.4337499,1398
1.4362499,1258
1.4387499,1376
1.4412498999999999,1680
1.4437499,1915
1.4462499,1851
1.4487499,1556
1.4512498999999999,1277
1.4537499,1221
1.4562499,1417
1.4587499,1725
1.4612498999999999,1872
1.4637499,1704
1.4662499,1393
1.4687499,1195
1.4712498999999999,1250
1.4737498999999998,1540
1.4762499,1856
1.4787499,1917
1.4812499,1677
1.4837498999999998,1366
1.4862499,1224
1.4887499,1347
1.4912499,1662
1.4937498999999999,1902
1.4962499,1827
1.4987499,1519
1.5012499,1235
1.5037498999999999,1185
1.5062499,1406
1.5087499,1762
1.5112499,1983
1.5137498999999999,1925
1.5162499,1748
1.5187499,1706
1.5212499,1912
1.5237498999999999,2363
1.5262499,2826
1.5287499,2989
1.5312499,2747
1.5337498999999999,2310
1.5362499,1959
1.5387499,1830
1.5412499,1891
1.5437499,1891
1.5462498999999998,1632
1.5487499,1219
1.5512499,913
1.5537499,891
1.5562498999999999,1147
1.5587499,1532
1.5612499,1738
1.5637499,1614
1.5662498999999999,1319
1.5687499,1119
1.5712499,1173
1.5737499,1459
1.5762498999999999,1782
1.5787499,1853
1.5812499,1619
1.5837499,1314
1.5862498999999999,1174
1.5887499,1281
1.5912499,1583
1.5937499,1825
1.5962498999999999,1775
1.5987499,1492
1.6012499,1223
1.6037499,1173
1.6062499,1380
1.6087498999999998,1708
1.6112499,1882
1.6137499,1735
1.6162499,1430
1.6187498999999999,1223
1.6212499,1258
1.6237499,1519
1.6262499,1814
1.6287498999999999,1870
1.6312499,1638
1.6337499,1329
1.6362499,1182
1.6387498999999999,1297
1.6412499,1609
1.6437499,1867
1.6462499,1835
1.6487498999999999,1559
1.6512499,1285
1.6537499,1219
1.6562499,1403
1.6587498999999999,1719
1.6612499,1896
1.6637499,1757
1.6662499,1451
1.6687499,1226
1.6712498999999998,1250
1.6737499,1509
1.6762499,1814
1.6787499,1891
1.6812498999999999,1672
1.6837499,1371
1.6862499,1224
1.6887499,1337
1.6912498999999999,1648
1.6937499,1906
1.6962499,1873
1.6987499,1595
1.7012498999999999,1318
1.7037499,1258
1.7062499,1463
1.7087499,1790
1.7112498999999999,1959
1.7137499,1812
1.7162499,1504
1.7187499,1287
1.7212498999999999,1327
1.7237499,1611
1.7262499,1938
1.7287499,2014
1.7312499,1778
1.7337498999999998,1472
1.7362499,1327
1.7387499,1459
1.7412499,1796
1.7437498999999999,2088
1.7462499,2064
1.7487499,1762
1.7512499,1458
1.7537498999999999,1380
1.7562499,1572
1.7587499,1911
1.7612499,2102
1.7637498999999999,1969
1.7662499,1656
1.7687499,1427
1.7712499,1448
1.7737498999999999,1709
1.7762499,2027
1.7787499,2106
1.7812499,1869
1.7837498999999999,1542
1.7862499,1366
1.7887499,1456
1.7912499,1751
1.7937499,1994
1.7962498999999998,1925
1.7987499,1600
1.8012499,1293
1.8037499,1216
1.8062498999999999,1398
1.8087499,1712
1.8112499,1885
1.8137499,1735
1.8162498999999999,1411
1.8187499,1173
1.8212499,1187
1.8237499,1440
1.8262498999999999,1741
1.8287499,1820
1.8312499,1598
1.8337499,1289
1.8362498999999999,1123
1.8387499,1195
1.8412499,1480
1.8437499,1737
1.8462498999999999,1716
1.8487499,1438
1.8512499,1165
1.8537499,1110
1.8562499,1319
1.8587498999999998,1650
1.8612499,1814
1.8637499,1670
1.8662499,1347
1.8687498999999999,1115
1.8712499,1131
1.8737499,1387
1.8762499,1704
1.8787498999999999,1795
1.8812499,1577
1.8837499,1263
1.8862499,1105
1.8887498999999999,1205
1.8912499,1513
1.8937499,1772
1.8962499,1745
1.8987498999999999,1466
1.9012499,1189
1.9037499,1121
1.9062499,1311
1.9087498999999999,1637
1.9112499,1819
1.9137499,1688
1.9162499,1400
1.9187499,1173
1.9212498999999998,1158
1.9237499,1392
1.9262499,1698
1.9287499,1785
1.9312498999999999,1571
1.9337499,1258
1.9362499,1098
1.9387499,1200
1.9412498999999999,1513
1.9437499,1778
1.9462499,1764
1.9487499,1488
1.9512498999999999,1195
1.9537499,1118
1.9562499,1303
1.9587499,1630
1.9612498999999999,1820
1.9637499,1687
1.9662499,1369
1.9687499,1131
1.9712498999999999,1144
1.9737499,1397
1.9762499,1709
1.9787499,1804
1.9812499,1592
1.9837499,1269
1.9862499,1105
1.9887499,1211
1.9912499,1524
1.9937498999999999,1795
1.9962499,1777
1.9987499,1490
2.0012499,1195
2.0037499,1108
2.0062499,1282
2.0087498999999998,1611
2.0112499,1820
2.0137499,1711
2.0162499,1405
2.0187499,1161
2.0212499,1166
2.0237499,1427
2.0262499,1730
2.0287498999999998,1807
2.0312499,1587
2.0337499,1285
2.0362499,1124
2.0387499,1216
2.0412499,1516
2.0437499,1785
2.0462499,1777
2.0487499,1501
2.0512498999999997,1210
2.0537499,1124
2.0562499,1306
2.0587499,1643
2.0612499,1838
2.0637499,1704
2.0662499,1384
2.0687499,1137
2.0712498999999998,1140
2.0737499,1400
2.0762499,1735
2.0787499,1848
2.0812499,1643
2.0837499,1324
2.0862499,1147
2.0887499,1234
2.0912498999999998,1538
2.0937499,1815
2.0962499,1814
2.0987499,1545
2.1012499,1253
2.1037499,1168
2.1062499,1345
2.1087499,1664
2.1112499,1857
2.1137498999999997,1741
2.1162499,1448
2.1187499,1218
2.1212499,1229
2.1237499,1474
2.1262499,1786
2.1287499,1896
2.1312499,1701
2.1337498999999998,1393
2.1362499,1227
2.1387499,1310
2.1412499,1598
2.1437499,1867
2.1462499,1869
2.1487499,1603
2.1512499,1314
2.1537498999999998,1231
2.1562499,1411
2.1587499,1745
2.1612499,1961
2.1637499,1856
2.1662499,1542
2.1687499,1277
2.1712499,1253
2.1737499,1474
2.1762499,1769
2.1787499,1870
2.1812499,1667
2.1837499,1359
2.1862499,1185
2.1887499,1263
2.1912499,1551
2.1937499,1814
2.1962498999999998,1819
2.1987499,1559
2.2012499,1261
2.2037499,1142
2.2062499,1293
2.2087499,1612
2.2112499,1822
2.2137499,1722
2.2162498999999998,1421
2.2187499,1185
2.2212499,1190
2.2237499,1435
2.2262499,1761
2.2287499,1882
2.2312499,1683
2.2337499,1361
2.2362499,1166
2.2387499,1231
2.2412499,1514
2.2437499,1785
2.2462499,1804
2.2487499,1583
2.2512499,1359
2.2537499,1358
2.2562499,1648
2.2587498999999998,2138
2.2612499,2550
2.2637499,2658
2.2662499,2520
2.2687499,2346
2.2712499,2291
2.2737499,2371
2.2762499,2466
2.2787498999999998,2342
2.2812499,1894
2.2837499,1318
2.2862499,928
2.2887499,889
2.2912499,1166
2.2937499,1492
2.2962499,1564
2.2987499,1359
2.3012499,1116
2.3037499,1053
2.3062499,1239
2.3087499,1575
2.3112499,1803
2.3137499,1720
2.3162499,1419
2.3187499,1168
2.3212498999999998,1158
2.3237499,1405
2.3262499,1738
2.3287499,1873
2.3312499,1679
2.3337499,1358
2.3362499,1174
2.3387499,1250
2.3412498999999998,1542
2.3437499,1822
2.3462499,1840
2.3487499,1582
2.3512499,1272
2.3537499,1195
2.3562499,1377
2.3587499,1706
2.3612499,1904
2.3637499,1814
2.3662499,1521
2.3687499,1274
2.3712499,1260
2.3737499,1484
2.3762499,1793
2.3787499,1912
2.3812499,1722
2.3837498999999998,1411
2.3862499,1226
2.3887499,1303
2.3912499,1604
2.3937499,1896
2.3962499,1922
2.3987499,1670
2.4012499,1377
2.4037498999999998,1263
2.4062499,1403
2.4087499,1719
2.4112499,1948
2.4137499,1861
2.4162499,1558
2.4187499,1295
2.4212499,1281
2.4237499,1521
2.4262499,1851
2.4287499,1994
2.4312499,1809
2.4337499,1500
2.4362499,1311
2.4387499,1388
2.4412499,1675
2.4437499,1957
2.4462498999999998,1981
2.4487499,1727
2.4512499,1435
2.4537499,1332
2.4562499,1496
2.4587499,1830
2.4612499,2064
2.4637499,1988
2.4662498999999998,1695
2.4687499,1443
2.4712499,1421
2.4737499,1654
2.4762499,1990
2.4787499,2131
2.4812499,1954
2.4837499,1643
2.4862499,1456
2.4887499,1532
2.4912499,1827
2.4937499,2131
2.4962499,2170
2.4987499,1917
2.5012499,1614
2.5037499,1500
2.5062499,1651
2.5087498999999998,1975
2.5112499,2191
2.5137499,2101
2.5162499,1804
2.5187499,1548
2.5212499,1513
2.5237499,1728
2.5262499,2048
2.5287498999999998,2167
2.5312499,1970
2.5337499,1638
2.5362499,1426
2.5387499,1469
2.5412499,1735
2.5437499,2017
2.5462499,2038
2.5487499,1778
2.5512499,1463
2.5537499,1324
2.5562499,1443
2.5587499,1743
2.5612499,1965
2.5637499,1885
2.5662499,1579
2.5687499,1303
2.5712498999999998,1264
2.5737499,1482
2.5762499,1801
2.5787499,1946
2.5812499,1775
2.5837499,1464
2.5862499,1260
2.5887499,1301
2.5912498999999998,1575
2.5937499,1880
2.5962499,1920
2.5987499,1670
2.6012499,1369
2.6037499,1250
2.6062499,1388
2.6087499,1703
2.6112499,1941
2.6137499,1872
2.6162499,1580
2.6187499,1322
2.6212499,1284
2.6237499,1471
2.6262499,1780
2.6287499,1933
2.6312499,1774
2.6337498999999998,1472
2.6362499,1276
2.6387499,1329
2.6412499,1614
2.6437499,1920
2.6462499,1972
2.6487499,1724
2.6512499,1414
2.6537498999999998,1274
2.6562499,1393
2.6587499,1695
2.6612499,1941
2.6637499,1893
2.6662499,1616
2.6687499,1350
2.6712499,1310
2.6737499,1529
2.6762499,1853
2.6787499,2002
2.6812499,1836
2.6837499,1522
2.6862499,1314
2.6887499,1366
2.6912499,1648
2.6937499,1948
2.6962498999999998,1994
2.6987499,1748
2.7012499,1432
2.7037499,1297
2.7062499,1430
2.7087499,1753
2.7112499,2002
2.7137499,1941
2.7162498999999998,1645
2.7187499,1371
2.7212499,1329
2.7237499,1548
2.7262499,1891
2.7287499,2052
2.7312499,1882
2.7337499,1548
2.7362499,1310
2.7387499,1342
2.7412499,1616
2.7437499,1930
2.7462499,2001
2.7487499,1769
2.7512499,1466
2.7537499,1327
2.7562499,1448
2.7587498999999998,1753
2.7612499,1994
2.7637499,1943
2.7662499,1661
2.7687499,1401
2.7712499,1361
2.7737499,1564
2.7762499,1886
2.7787498999999998,2049
2.7812499,1893
2.7837499,1572
2.7862499,1350
2.7887499,1387
2.7912499,1656
2.7937499,1962
2.7962499,2027
2.7987499,1795
2.8012499,1490
2.8037499,1351
2.8062499,1477
2.8087499,1795
2.8112499,2044
2.8137499,2002
2.8162499,1725
2.8187499,1448
2.8212498999999998,1382
2.8237499,1582
2.8262499,1909
2.8287499,2075
2.8312499,1923
2.8337499,1622
2.8362499,1419
2.8387499,1467
2.8412498999999998,1743
2.8437499,2051
2.8462499,2114
2.8487499,1873
2.8512499,1554
2.8537499,1435
2.8562499,1569
2.8587499,1854
2.8612499,2097
2.8637499,2049
2.8662499,1759
2.8687499,1477
2.8712499,1403
2.8737499,1587
2.8762499,1906
2.8787499,2078
2.8812499,1928
2.8837498999999998,1614
2.8862499,1388
2.8887499,1411
2.8912499,1669
2.8937499,1967
2.8962499,2033
2.8987499,1804
2.9012499,1498
2.9037498999999998,1355
2.9062499,1466
2.9087499,1769
2.9112499,2027
2.9137499,1988
2.9162499,1699
2.9187499,1421
2.9212499,1355
2.9237499,1551
2.9262499,1878
2.9287499,2049
2.9312499,1899
2.9337499,1585
2.9362499,1359
2.9387499,1380
2.9412499,1641
2.9437499,1961
2.9462498999999998,2064
2.9487499,1909
2.9512499,1709
2.9537499,1703
2.9562499,1988
2.9587499,2483
2.9612499,2916
2.9637499,3030
2.9662498999999998,2823
2.9687499,2495
2.9712499,2267
2.9737499,2223
2.9762499,2291
2.9787499,2213
2.9812499,1828
2.9837499,1329
2.9862499,1002
2.9887499,1008
2.9912499,1314
2.9937499,1695
2.9962499,1846
2.9987499,1679
3.0012499,1405
3.0037499,1266
3.0062499,1388
3.0087499,1706
3.0112499,1973
3.0137499,1948
3.0162499,1672
3.0187499,1400
3.0212499,1340
3.0237499,1535
3.0262499,1867
3.0287498999999998,2056
3.0312499,1925
3.0337499,1611
3.0362499,1384
3.0387499,1401
3.0412499,1659
3.0437499,1972
3.0462499,2051
3.0487499,1832
3.0512499,1524
3.0537499,1369
3.0562499,1479
3.0587499,1788
3.0612499,2057
3.0637499,2035
3.0662499,1764
3.0687499,1490
3.0712499,1409
3.0737499,1587
3.0762499,1911
3.0787499,2104
3.0812499,1978
3.0837499,1664
3.0862499,1435
3.0887499,1456
3.0912498999999998,1714
3.0937499,2028
3.0962499,2118
3.0987499,1899
3.1012499,1588
3.1037499,1429
3.1062499,1535
3.1087499,1846
3.1112499,2122
3.1137499,2109
3.1162499,1835
3.1187499,1537
3.1212499,1437
3.1237499,1611
3.1262499,1946
3.1287499,2152
3.1312499,2041
3.1337499,1740
3.1362499,1517
3.1387499,1530
3.1412499,1786
3.1437499,2101
3.1462499,2193
3.1487499,1986
3.1512499,1674
3.1537498999999998,1516
3.1562499,1616
3.1587499,1930
3.1612499,2212
3.1637499,2209
3.1662499,1946
3.1687499,1679
3.1712499,1621
3.1737499,1798
3.1762499,2117
3.1787499,2304
3.1812499,2186
3.1837499,1886
3.1862499,1662
3.1887499,1677
3.1912499,1933
3.1937499,2249
3.1962499,2349
3.1987499,2136
3.2012499,1824
3.2037499,1667
3.2062499,1769
3.2087499,2078
3.2112499,2344
3.2137499,2309
3.2162498999999998,2010
3.2187499,1704
3.2212499,1614
3.2237499,1785
3.2262499,2109
3.2287499,2300
3.2312499,2165
3.2337499,1830
3.2362499,1564
3.2387499,1542
3.2412499,1772
3.2437499,2078
3.2462499,2170
3.2487499,1952
3.2512499,1632
3.2537499,1446
3.2562499,1514
3.2587499,1793
3.2612499,2049
3.2637499,2035
3.2662499,1757
3.2687499,1461
3.2712499,1363
3.2737499,1535
3.2762499,1865
3.2787498999999998,2077
3.2812499,1965
3.2837499,1656
3.2862499,1421
3.2887499,1416
3.2912499,1650
3.2937499,1969
3.2962499,2078
3.2987499,1869
3.3012499,1553
3.3037499,1377
3.3062499,1461
3.3087499,1754
3.3112499,2033
3.3137499,2038
3.3162499,1770
3.3187499,1477
3.3212499,1377
3.3237499,1550
3.3262499,1883
3.3287499,2099
3.3312499,1981
3.3337499,1658
3.3362499,1405
3.3387499,1403
3.3412498999999998,1651
3.3437499,1983
3.3462499,2094
3.3487499,1875
3.3512499,1556
3.3537499,1387
3.3562499,1477
3.3587499,1782
3.3612499,2070
3.3637499,2075
3.3662499,1809
3.3687499,1504
3.3712499,1390
3.3737499,1548
3.3762499,1870
3.3787499,2085
3.3812499,1990
3.3837499,1693
3.3862499,1455
3.3887499,1445
3.3912499,1680
3.3937499,1996
3.3962499,2107
3.3987499,1904
3.4012499,1592
3.4037498999999998,1409
3.4062499,1492
3.4087499,1778
3.4112499,2064
3.4137499,2081
3.4162499,1817
3.4187499,1509
3.4212499,1390
3.4237499,1542
3.4262499,1865
3.4287499,2080
3.4312499,1980
3.4337499,1682
3.4362499,1434
3.4387499,1426
3.4412499,1658
3.4437499,1981
3.4462499,2107
3.4487499,1909
3.4512499,1582
3.4537499,1390
3.4562499,1459
3.4587499,1748
3.4612499,2039
3.4637499,2059
3.4662498999999998,1801
3.4687499,1513
3.4712499,1411
3.4737499,1566
3.4762499,1888
3.4787499,2107
3.4812499,2009
3.4837499,1695
3.4862499,1435
3.4887499,1408
3.4912499,1637
3.4937499,1957
3.4962499,2085
3.4987499,1896
3.5012499,1583
3.5037499,1403
3.5062499,1479
3.5087499,1772
3.5112499,2065
3.5137499,2085
3.5162499,1824
3.5187499,1530
3.5212499,1435
3.5237499,1588
3.5262499,1906
3.5287498999999998,2125
3.5312499,2031
3.5337499,1728
3.5362499,1472
3.5387499,1458
3.5412499,1699
3.5437499,2035
3.5462499,2165
3.5487499,1981
3.5512499,1669
3.5537499,1479
3.5562499,1543
3.5587499,1824
3.5612499,2107
3.5637499,2133
3.5662499,1893
3.5687499,1611
3.5712499,1503
3.5737499,1645
3.5762499,1952
3.5787499,2170
3.5812499,2068
3.5837499,1745
3.5862499,1471
3.5887499,1437
3.5912498999999998,1651
3.5937499,1973
3.5962499,2112
3.5987499,1928
3.6012499,1600
3.6037499,1398
3.6062499,1455
3.6087499,1732
3.6112499,2017
3.6137499,2041
3.6162499,1785
3.6187499,1492
3.6212499,1382
3.6237499,1533
3.6262499,1856
3.6287499,2083
3.6312499,2009
3.6337499,1720
3.6362499,1451
3.6387499,1400
3.6412499,1609
3.6437499,1930
3.6462499,2054
3.6487499,1853
3.6512499,1524
3.6537498999999998,1329
3.6562499,1416
3.6587499,1737
3.6612499,2089
3.6637499,2213
3.6662499,2085
3.6687499,1946
3.6712499,2015
3.6737499,2346
3.6762499,2827
3.6787499,3163
3.6812499,3101
3.6837499,2713
3.6862499,2262
3.6887499,1983
3.6912499,1943
3.6937499,2012
3.6962499,1928
3.6987499,1603
3.7012499,1226
3.7037499,1042
3.7062499,1153
3.7087499,1495
3.7112499,1832
3.7137499,1902
3.7162498999999998,1672
3.7187499,1382
3.7212499,1272
3.7237499,1424
3.7262499,1740
3.7287499,1923
3.7312499,1745
3.7337499,1311
3.7362499,912
3.7387499,775
3.7412499,918
3.7437499,1198
3.7462499,1322
3.7487499,1140
3.7512499,821
3.7537499,620
3.7562499,671
3.7587499,947
3.7612499,1239
3.7637499,1276
3.7662499,1031
3.7687499,728
3.7712499,597
3.7737499,723
3.7762499,1031
3.7787498999999998,1260
3.7812499,1187
3.7837499,887
3.7862499,626
3.7887499,592
3.7912499,812
3.7937499,1144
3.7962499,1301
3.7987499,1139
3.8012499,823
3.8037499,615
3.8062499,660
3.8087499,942
3.8112499,1255
3.8137499,1316
3.8162499,1073
3.8187499,770
3.8212499,649
3.8237499,794
3.8262499,1119
3.8287499,1372
3.8312499,1322
3.8337499,1021
3.8362499,787
3.8387499,791
3.8412498999999998,1011
3.8437499,1347
3.8462499,1501
3.8487499,1343
3.8512499,1037
3.8537499,833
3.8562499,884
3.8587499,1173
3.8612499,1484
3.8637499,1550
3.8662499,1322
3.8687499,1036
3.8712499,923
3.8737499,1074
3.8762499,1414
3.8787499,1677
3.8812499,1632
3.8837499,1347
3.8862499,1084
3.8887499,1040
3.8912499,1264
3.8937499,1614
3.8962499,1791
3.8987499,1645
3.9012499,1340
3.9037499,1137
3.9062499,1189
3.9087499,1477
3.9112499,1788
3.9137499,1849
3.9162499,1617
3.9187499,1316
3.9212499,1195
3.9237499,1337
3.9262499,1648
3.9287499,1872
3.9312499,1795
3.9337499,1493
3.9362499,1223
3.9387499,1177
3.9412499,1385
3.9437499,1703
3.9462499,1841
3.9487499,1658
3.9512499,1318
3.9537499,1089
3.9562499,1111
3.9587499,1374
3.9612499,1669
3.9637499,1720
3.9662499,1479
3.9687499,1171
3.9712499,1023
3.9737499,1131
3.9762499,1435
3.9787499,1682
3.9812499,1635
3.9837499,1351
3.9862499,1079
3.9887499,1015
3.9912499,1203
3.9937499,1530
3.9962499,1708
3.9987499,1579
4.0012499,1281
4.003749900000001,1076
4.0062499,1111
4.008749900000001,1371
4.0112499,1667
4.0137499000000005,1714
4.0162499,1475
4.0187499,1173
4.021249900000001,1039
4.0237499,1169
4.026249900000001,1492
4.0287499,1745
4.031249900000001,1699
4.0337499,1414
4.0362499000000005,1144
4.0387499,1095
4.0412499,1310
4.043749900000001,1637
4.0462499,1793
4.048749900000001,1633
4.0512499,1313
4.053749900000001,1098
4.0562499,1140
4.0587499000000005,1422
4.061249900000001,1740
4.0637499,1812
4.066249900000001,1582
4.0687499,1266
4.071249900000001,1113
4.0737499,1226
4.0762499000000005,1548
4.0787499,1819
4.0812499,1796
4.083749900000001,1522
4.0862499,1247
4.088749900000001,1176
4.0912499,1361
4.093749900000001,1683
4.0962499,1861
4.0987499000000005,1722
4.1012499,1417
4.1037499,1203
4.106249900000001,1232
4.1087499,1513
4.111249900000001,1830
4.1137499,1888
4.116249900000001,1635
4.1187499,1308
4.1212499000000005,1160
4.123749900000001,1276
4.1262499,1603
4.128749900000001,1877
4.1312499,1846
4.133749900000001,1564
4.1362499,1277
4.1387499000000005,1214
4.1412499,1421
4.1437499,1754
4.146249900000001,1933
4.1487499,1793
4.151249900000001,1484
4.1537499,1256
4.156249900000001,1277
4.1587499,1537
4.1612499000000005,1844
4.1637499,1919
4.1662499,1687
4.168749900000001,1377
4.1712499,1237
4.173749900000001,1374
4.1762499,1695
4.178749900000001,1949
4.1812499,1902
4.1837499000000005,1611
4.186249900000001,1327
4.1887499,1261
4.191249900000001,1458
4.1937499,1793
4.196249900000001,1985
4.1987499,1848
4.2012499000000005,1537
4.2037499,1306
4.2062499,1334
4.208749900000001,1604
4.2112499,1915
4.213749900000001,1988
4.2162499,1759
4.218749900000001,1450
4.2212499,1298
4.2237499000000005,1403
4.2262499,1712
4.2287499,1981
4.231249900000001,1962
4.2337499,1688
4.236249900000001,1411
4.2387499,1342
4.241249900000001,1530
4.2437499,1859
4.2462499000000005,2054
4.248749900000001,1925
4.2512499,1611
4.253749900000001,1382
4.2562499,1408
4.258749900000001,1670
4.2612499,1993
4.2637499000000005,2085
4.2662499,1872
4.2687499,1574
4.271249900000001,1432
4.2737499,1542
4.276249900000001,1841
4.2787499,2101
4.281249900000001,2075
4.2837499,1798
4.2862499000000005,1516
4.288749900000001,1438
4.2912499,1630
4.293749900000001,1964
4.2962499,2155
4.298749900000001,2020
4.3012499,1695
4.303749900000001,1440
4.3062499,1446
4.3087499000000005,1693
4.311249900000001,1981
4.3137499,2051
4.316249900000001,1830
4.3187499,1519
4.321249900000001,1363
4.3237499,1495
4.3262499000000005,1817
4.3287499,2080
4.3312499,2049
4.333749900000001,1767
4.3362499,1477
4.338749900000001,1395
4.3412499,1572
4.343749900000001,1886
4.3462499,2072
4.3487499000000005,1949
4.351249900000001,1638
4.3537499,1400
4.356249900000001,1414
4.3587499,1666
4.361249900000001,1983
4.3637499,2080
4.366249900000001,1862
4.3687499,1545
4.3712499000000005,1374
4.373749900000001,1466
4.3762499,1780
4.378749900000001,2077
4.3812499,2107
4.383749900000001,1917
4.3862499,1770
4.3887499000000005,1878
4.3912499,2251
4.3937499,2760
4.396249900000001,3116
4.3987499,3093
4.401249900000001,2782
4.4037499,2421
4.406249900000001,2222
4.4087499,2238
4.4112499000000005,2305
4.413749900000001,2146
4.4162499,1714
4.418749900000001,1255
4.4212499,1032
4.423749900000001,1132
4.4262499,1484
4.428749900000001,1824
4.4312499,1883
4.4337499000000005,1658
4.436249900000001,1400
4.4387499,1343
4.441249900000001,1540
4.4437499,1883
4.446249900000001,2093
4.4487499,1978
4.4512499000000005,1670
4.4537499,1424
4.4562499,1419
4.458749900000001,1664
4.4612499,1988
4.463749900000001,2104
4.4662499,1901
4.468749900000001,1590
4.4712499,1424
4.4737499000000005,1521
4.476249900000001,1830
4.4787499,2097
4.481249900000001,2093
4.4837499,1828
4.486249900000001,1537
4.4887499,1440
4.491249900000001,1601
4.4937499,1933
4.4962499000000005,2136
4.498749900000001,2025
4.5012499,1720
4.503749900000001,1488
4.5062499,1495
4.508749900000001,1745
4.5112499,2072
4.5137499000000005,2188
4.5162499,1986
4.5187499,1669
4.521249900000001,1492
4.5237499,1571
4.526249900000001,1867
4.5287499,2144
4.531249900000001,2147
4.5337499,1880
4.5362499000000005,1590
4.538749900000001,1492
4.5412499,1661
4.543749900000001,1991
4.5462499,2205
4.548749900000001,2106
4.5512499,1801
4.553749900000001,1554
4.5562499,1542
4.5587499000000005,1780
4.561249900000001,2120
4.5637499,2255
4.566249900000001,2059
4.5687499,1748
4.571249900000001,1579
4.5737499,1661
4.5762499000000005,1964
4.5787499,2251
4.5812499,2249
4.583749900000001,1969
4.5862499,1672
4.588749900000001,1588
4.5912499,1762
4.593749900000001,2102
4.5962499,2328
4.5987499000000005,2234
4.601249900000001,1940
4.6037499,1695
4.606249900000001,1682
4.6087499,1930
4.611249900000001,2265
4.6137499,2402
4.616249900000001,2215
4.6187499,1904
4.6212499000000005,1727
4.623749900000001,1809
4.6262499,2106
4.628749900000001,2379
4.6312499,2384
4.633749900000001,2123
4.6362499,1836
4.6387499000000005,1741
4.6412499,1904
4.6437499,2231
4.646249900000001,2449
4.6487499,2350
4.651249900000001,2038
4.6537499,1767
4.656249900000001,1737
4.6587499,1956
4.6612499000000005,2265
4.663749900000001,2381
4.6662499,2172
4.668749900000001,1832
4.6712499,1621
4.673749900000001,1659
4.6762499,1927
4.678749900000001,2194
4.6812499,2201
4.6837499000000005,1930
4.686249900000001,1629
4.6887499,1525
4.691249900000001,1670
4.6937499,1978
4.696249900000001,2184
4.6987499,2086
4.7012499000000005,1783
4.7037499,1535
4.7062499,1514
4.708749900000001,1735
4.7112499,2048
4.713749900000001,2167
4.7162499,1975
4.718749900000001,1653
4.7212499,1463
4.7237499000000005,1533
4.726249900000001,1822
4.7287499,2107
4.731249900000001,2128
4.7337499,1875
4.736249900000001,1577
4.7387499,1466
4.741249900000001,1617
4.7437499,1940
4.7462499000000005,2157
4.748749900000001,2072
4.7512499,1774
4.753749900000001,1524
4.7562499,1516
4.758749900000001,1756
4.7612499,2078
4.7637499000000005,2191
4.7662499,1981
4.7687499,1662
4.771249900000001,1479
4.7737499,1546
4.776249900000001,1830
4.7787499,2109
4.781249900000001,2128
4.7837499,1877
4.7862499000000005,1585
4.788749900000001,1479
4.7912499,1632
4.793749900000001,1956
4.7962499,2176
4.798749900000001,2088
4.8012499,1790
4.803749900000001,1538
4.8062499,1516
4.8087499000000005,1735
4.811249900000001,2048
4.8137499,2172
4.816249900000001,1967
4.8187499,1653
4.821249900000001,1485
4.8237499,1566
4.8262499000000005,1853
4.8287499,2146
4.8312499,2176
4.833749900000001,1920
4.8362499,1629
4.838749900000001,1516
4.8412499,1653
4.843749900000001,1964
4.8462499,2176
4.8487499000000005,2077
4.851249900000001,1769
4.8537499,1516
4.856249900000001,1501
4.8587499,1746
4.861249900000001,2091
4.8637499,2226
4.866249900000001,2022
4.8687499,1679
4.8712499000000005,1467
4.873749900000001,1529
4.8762499,1822
4.878749900000001,2133
4.8812499,2181
4.883749900000001,1936
4.8862499,1632
4.8887499000000005,1513
4.8912499,1648
4.8937499,1962
4.896249900000001,2189
4.8987499,2109
4.901249900000001,1806
4.9037499,1546
4.906249900000001,1517
4.9087499,1740
4.9112499000000005,2065
4.913749900000001,2209
4.9162499,2035
4.918749900000001,1720
4.9212499,1522
4.923749900000001,1580
4.9262499,1861
4.928749900000001,2155
4.9312499,2193
4.9337499000000005,1941
4.936249900000001,1638
4.9387499,1513
4.941249900000001,1648
4.9437499,1972
4.946249900000001,2215
4.9487499,2146
4.9512499000000005,1856
4.9537499,1601
4.9562499,1585
4.958749900000001,1806
4.9612499,2112
4.963749900000001,2239
4.9662499,2059
4.968749900000001,1748
4.9712499,1553
4.9737499000000005,1611
4.976249900000001,1901
4.9787499,2201
4.981249900000001,2247
4.9837499,2004
4.986249900000001,1712
4.9887499,1598
4.991249900000001,1735
4.9937499,2054
4.9962499000000005,2281
4.998749900000001,2199
5.0012499,1890
5.003749900000001,1612
5.0062499,1556
5.008749900000001,1754
5.0112499,2073
5.0137499000000005,2228
5.0162499,2059
5.0187499,1743
5.021249900000001,1537
5.0237499,1580
5.026249900000001,1841
5.0287499,2122
5.031249900000001,2162
5.0337499,1914
5.0362499000000005,1609
5.038749900000001,1479
5.0412499,1606
5.043749900000001,1917
5.0462499,2152
5.048749900000001,2091
5.0512499,1807
5.053749900000001,1551
5.0562499,1508
5.0587499000000005,1711
5.061249900000001,2031
5.0637499,2173
5.066249900000001,2001
5.0687499,1679
5.071249900000001,1461
5.0737499,1498
5.0762499000000005,1774
5.0787499,2099
5.0812499,2204
5.083749900000001,2038
5.0862499,1833
5.088749900000001,1835
5.0912499,2135
5.093749900000001,2639
5.0962499,3066
5.0987499000000005,3150
5.101249900000001,2914
5.1037499,2573
5.106249900000001,2349
5.1087499,2318
5.111249900000001,2389
5.1137499,2296
5.116249900000001,1898
5.1187499,1416
5.1212499000000005,1131
5.123749900000001,1174
5.1262499,1490
5.128749900000001,1843
5.1312499,1946
5.133749900000001,1740
5.1362499,1459
5.1387499000000005,1342
5.1412499,1488
5.1437499,1814
5.146249900000001,2078
5.1487499,2033
5.151249900000001,1751
5.1537499,1501
5.156249900000001,1479
5.1587499,1691
5.1612499000000005,2002
5.163749900000001,2143
5.1662499,1969
5.168749900000001,1646
5.1712499,1434
5.173749900000001,1482
5.1762499,1761
5.178749900000001,2075
5.1812499,2144
5.1837499000000005,1917
5.186249900000001,1612
5.1887499,1471
5.191249900000001,1583
5.1937499,1882
5.196249900000001,2118
5.1987499,2064
5.2012499000000005,1786
5.2037499,1535
5.2062499,1498
5.208749900000001,1704
5.2112499,2030
5.213749900000001,2193
5.2162499,2031
5.218749900000001,1711
5.2212499,1498
5.2237499000000005,1542
5.226249900000001,1814
5.2287499,2107
5.231249900000001,2157
5.2337499,1919
5.236249900000001,1609
5.2387499,1467
5.241249900000001,1592
5.2437499,1904
5.2462499000000005,2162
5.248749900000001,2118
5.2512499,1835
5.253749900000001,1580
5.2562499,1533
5.258749900000001,1738
5.2612499,2064
5.2637499000000005,2222
5.2662499,2054
5.2687499,1732
5.271249900000001,1514
5.2737499,1551
5.276249900000001,1825
5.2787499,2149
5.281249900000001,2238
5.2837499,2023
5.2862499000000005,1727
5.288749900000001,1588
5.2912499,1698
5.293749900000001,2007
5.2962499,2265
5.298749900000001,2233
5.3012499,1957
5.303749900000001,1690
5.3062499,1637
5.3087499000000005,1849
5.311249900000001,2172
5.3137499,2330
5.316249900000001,2173
5.3187499,1891
5.321249900000001,1670
5.3237499,1699
5.3262499000000005,1975
5.3287499,2294
5.3312499,2371
5.333749900000001,2141
5.3362499,1828
5.338749900000001,1683
5.3412499,1806
5.343749900000001,2139
5.3462499,2417
5.3487499000000005,2388
5.351249900000001,2073
5.3537499,1756
5.356249900000001,1653
5.3587499,1815
5.361249900000001,2130
5.3637499,2304
5.366249900000001,2155
5.3687499,1825
5.3712499000000005,1579
5.373749900000001,1574
5.3762499,1819
5.378749900000001,2114
5.3812499,2180
5.383749900000001,1946
5.3862499,1619
5.3887499000000005,1443
5.3912499,1524
5.3937499,1811
5.396249900000001,2072
5.3987499,2051
5.401249900000001,1772
5.4037499,1487
5.406249900000001,1408
5.4087499,1592
5.4112499000000005,1909
5.413749900000001,2091
5.4162499,1956
5.418749900000001,1643
5.4212499,1403
5.423749900000001,1409
5.4262499,1664
5.428749900000001,1980
5.4312499,2067
5.4337499000000005,1840
5.436249900000001,1527
5.4387499,1374
5.441249900000001,1482
5.4437499,1785
5.446249900000001,2043
5.4487499,2009
5.4512499000000005,1722
5.4537499,1440
5.4562499,1366
5.458749900000001,1551
5.4612499,1880
5.463749900000001,2065
5.4662499,1935
5.468749900000001,1625
5.4712499,1400
5.4737499000000005,1427
5.476249900000001,1690
5.4787499,1990
5.481249900000001,2054
5.4837499,1822
5.486249900000001,1504
5.4887499,1339
5.491249900000001,1435
5.4937499,1753
5.4962499000000005,2036
5.498749900000001,2027
5.5012499,1754
5.503749900000001,1467
5.5062499,1380
5.508749900000001,1556
5.5112499,1873
5.5137499000000005,2062
5.5162499,1940
5.5187499,1633
5.521249900000001,1392
5.5237499,1397
5.526249900000001,1645
5.5287499,1951
5.531249900000001,2046
5.5337499,1836
5.5362499000000005,1532
5.538749900000001,1368
5.5412499,1459
5.543749900000001,1753
5.5462499,2020
5.548749900000001,2004
5.5512499,1727
5.553749900000001,1442
5.5562499,1358
5.5587499000000005,1535
5.561249900000001,1856
5.5637499,2044
5.566249900000001,1922
5.5687499,1612
5.571249900000001,1366
5.5737499,1364
5.5762499000000005,1621
5.5787499,1944
5.5812499,2048
5.583749900000001,1835
5.5862499,1509
5.588749900000001,1330
5.5912499,1419
5.593749900000001,1722
5.5962499,2006
5.5987499000000005,1990
5.601249900000001,1698
5.6037499,1395
5.606249900000001,1310
5.6087499,1496
5.611249900000001,1830
5.6137499,2043
5.616249900000001,1935
5.6187499,1627
5.6212499000000005,1382
5.623749900000001,1380
5.6262499,1630
5.628749900000001,1948
5.6312499,2057
5.633749900000001,1857
5.6362499,1554
5.6387499000000005,1387
5.6412499,1471
5.6437499,1759
5.646249900000001,2028
5.6487499,2025
5.651249900000001,1754
5.6537499,1469
5.656249900000001,1385
5.6587499,1563
5.6612499000000005,1898
5.663749900000001,2109
5.6662499,1999
5.668749900000001,1688
5.6712499,1443
5.673749900000001,1427
5.6762499,1661
5.678749900000001,1965
5.6812499,2059
5.6837499000000005,1841
5.686249900000001,1521
5.6887499,1334
5.691249900000001,1409
5.6937499,1703
5.696249900000001,1985
5.6987499,1986
5.7012499000000005,1712
5.7037499,1413
5.7062499,1311
5.708749900000001,1469
5.7112499,1788
5.713749900000001,2001
5.7162499,1902
5.718749900000001,1601
5.7212499,1348
5.7237499000000005,1334
5.726249900000001,1564
5.7287499,1872
5.731249900000001,1988
5.7337499,1790
5.736249900000001,1477
5.7387499,1298
5.741249900000001,1379
5.7437499,1677
5.7462499000000005,1957
5.748749900000001,1961
5.7512499,1685
5.753749900000001,1376
5.7562499,1256
5.758749900000001,1401
5.7612499,1722
5.7637499000000005,1964
5.7662499,1928
5.7687499,1727
5.771249900000001,1616
5.7737499,1774
5.776249900000001,2204
5.7787499,2723
5.781249900000001,3008
5.7837499,2906
5.7862499000000005,2570
5.788749900000001,2247
5.7912499,2109
5.793749900000001,2167
5.7962499,2202
5.798749900000001,1965
5.8012499,1488
5.803749900000001,1060
5.8062499,912
5.8087499000000005,1113
5.811249900000001,1503
5.8137499,1756
5.816249900000001,1719
5.8187499,1459
5.821249900000001,1232
5.8237499,1226
5.8262499000000005,1466
5.8287499,1783
5.8312499,1911
5.833749900000001,1724
5.8362499,1416
5.838749900000001,1235
5.8412499,1303
5.843749900000001,1590
5.8462499,1880
5.8487499000000005,1917
5.851249900000001,1682
5.8537499,1385
5.856249900000001,1256
5.8587499,1392
5.861249900000001,1703
5.8637499,1917
5.866249900000001,1815
5.8687499,1514
5.8712499000000005,1271
5.873749900000001,1260
5.8762499,1500
5.878749900000001,1830
5.8812499,1967
5.883749900000001,1786
5.8862499,1477
5.8887499000000005,1292
5.8912499,1358
5.8937499,1650
5.896249900000001,1933
5.8987499,1940
5.901249900000001,1669
5.9037499,1369
5.906249900000001,1261
5.9087499,1411
5.9112499000000005,1728
5.913749900000001,1956
5.9162499,1877
5.918749900000001,1582
5.9212499,1327
5.923749900000001,1308
5.9262499,1537
5.928749900000001,1856
5.9312499,1990
5.9337499000000005,1811
5.936249900000001,1508
5.9387499,1324
5.941249900000001,1387
5.9437499,1675
5.946249900000001,1972
5.9487499,2006
5.9512499000000005,1754
5.9537499,1451
5.9562499,1332
5.958749900000001,1480
5.9612499,1804
5.963749900000001,2041
5.9662499,1970
5.968749900000001,1682
5.9712499,1417
5.9737499000000005,1382
5.976249900000001,1614
5.9787499,1943
5.981249900000001,2091
5.9837499,1923
5.986249900000001,1627
5.9887499,1450
5.991249900000001,1521
5.9937499,1807
5.9962499000000005,2099
5.998749900000001,2125
6.0012499,1872
6.003749900000001,1585
6.0062499,1487
6.008749900000001,1635
6.0112499,1952
6.0137499000000005,2181
6.016249900000001,2107
6.0187499,1815
6.021249900000001,1564
6.0237499,1533
6.026249900000001,1756
6.0287499,2080
6.031249900000001,2220
6.0337499,2035
6.0362499000000005,1703
6.038749900000001,1487
6.0412499,1525
6.043749900000001,1799
6.0462499,2089
6.048749900000001,2106
6.0512499,1828
6.053749900000001,1500
6.0562499,1355
6.0587499000000005,1484
6.061249900000001,1793
6.0637499,2014
6.066249900000001,1927
6.0687499,1614
6.071249900000001,1334
6.0737499,1284
6.0762499000000005,1496
6.078749900000001,1819
6.0812499,1967
6.083749900000001,1790
6.0862499,1464
6.088749900000001,1260
6.0912499,1298
6.093749900000001,1569
6.0962499,1867
6.0987499000000005,1914
6.101249900000001,1669
6.1037499,1366
6.106249900000001,1240
6.1087499,1372
6.111249900000001,1688
6.1137499,1927
6.116249900000001,1857
6.1187499,1554
6.1212499000000005,1293
6.123749900000001,1269
6.1262499,1493
6.128749900000001,1815
6.1312499,1967
6.133749900000001,1795
6.1362499,1475
6.1387499000000005,1264
6.141249900000001,1308
6.1437499,1580
6.146249900000001,1875
6.1487499,1927
6.151249900000001,1683
6.1537499,1380
6.156249900000001,1263
6.1587499,1397
6.1612499000000005,1701
6.163749900000001,1940
6.1662499,1864
6.168749900000001,1559
6.1712499,1292
6.173749900000001,1255
6.1762499,1474
6.178749900000001,1803
6.1812499,1961
6.1837499000000005,1795
6.186249900000001,1475
6.1887499,1266
6.191249900000001,1321
6.1937499,1617
6.196249900000001,1933
6.1987499,1980
6.2012499000000005,1724
6.203749900000001,1405
6.2062499,1266
6.208749900000001,1388
6.2112499,1703
6.213749900000001,1954
6.2162499,1890
6.218749900000001,1595
6.2212499,1329
6.2237499000000005,1297
6.226249900000001,1516
6.2287499,1838
6.231249900000001,1988
6.2337499,1814
6.236249900000001,1496
6.2387499,1284
6.241249900000001,1326
6.2437499,1603
6.2462499000000005,1902
6.248749900000001,1952
6.2512499,1706
6.253749900000001,1400
6.2562499,1264
6.258749900000001,1390
6.2612499,1698
6.2637499000000005,1938
6.266249900000001,1878
6.2687499,1577
6.271249900000001,1300
6.2737499,1258
6.276249900000001,1475
6.2787499,1807
6.281249900000001,1964
6.2837499,1790
6.2862499000000005,1471
6.288749900000001,1256
6.2912499,1298
6.293749900000001,1579
6.2962499,1886
6.298749900000001,1954
6.3012499,1698
6.303749900000001,1397
6.3062499,1274
6.3087499000000005,1393
6.311249900000001,1712
6.3137499,1972
6.316249900000001,1927
6.3187499,1638
6.321249900000001,1361
6.3237499,1298
6.3262499000000005,1501
6.328749900000001,1827
6.3312499,2001
6.333749900000001,1851
6.3362499,1537
6.338749900000001,1313
6.3412499,1348
6.343749900000001,1617
6.3462499,1928
6.3487499000000005,1999
6.351249900000001,1772
6.3537499,1472
6.356249900000001,1335
6.3587499,1455
6.361249900000001,1756
6.3637499,2015
6.366249900000001,1978
6.3687499,1696
6.3712499000000005,1413
6.373749900000001,1340
6.3762499,1533
6.378749900000001,1854
6.3812499,2025
6.383749900000001,1872
6.3862499,1561
6.3887499000000005,1327
6.391249900000001,1329
6.3937499,1571
6.396249900000001,1865
6.3987499,1932
6.401249900000001,1701
6.4037499,1397
6.406249900000001,1255
6.4087499,1371
6.4112499000000005,1683
6.413749900000001,1941
6.4162499,1902
6.418749900000001,1614
6.4212499,1334
6.423749900000001,1266
6.4262499,1456
6.428749900000001,1777
6.4312499,1951
6.4337499000000005,1806
6.436249900000001,1495
6.4387499,1271
6.441249900000001,1289
6.4437499,1548
6.446249900000001,1843
6.4487499,1906
6.4512499000000005,1672
6.453749900000001,1364
6.4562499,1242
6.458749900000001,1390
6.4612499,1767
6.463749900000001,2131
6.4662499,2251
6.468749900000001,2155
6.4712499,2075
6.4737499000000005,2188
6.476249900000001,2507
6.4787499,2885
6.481249900000001,3016
6.4837499,2737
6.486249900000001,2217
6.4887499,1740
6.491249900000001,1506
6.4937499,1521
6.4962499000000005,1637
6.498749900000001,1606
6.5012499,1359
6.503749900000001,1095
6.5062499,1011
6.508749900000001,1176
6.5112499,1521
6.5137499000000005,1795
6.516249900000001,1772
6.5187499,1508
6.521249900000001,1250
6.5237499,1205
6.526249900000001,1408
6.5287499,1741
6.531249900000001,1935
6.5337499,1804
6.5362499000000005,1493
6.538749900000001,1260
6.5412499,1274
6.543749900000001,1530
6.5462499,1840
6.548749900000001,1928
6.5512499,1714
6.553749900000001,1408
6.5562499,1247
6.5587499000000005,1348
6.561249900000001,1658
6.5637499,1930
6.566249900000001,1912
6.5687499,1633
6.571249900000001,1347
6.5737499,1269
6.5762499000000005,1458
6.578749900000001,1788
6.5812499,1970
6.583749900000001,1836
6.5862499,1535
6.588749900000001,1301
6.5912499,1318
6.593749900000001,1575
6.5962499,1888
6.5987499000000005,1973
6.601249900000001,1754
6.6037499,1445
6.606249900000001,1285
6.6087499,1380
6.611249900000001,1687
6.6137499,1959
6.616249900000001,1943
6.6187499,1670
6.6212499000000005,1390
6.623749900000001,1319
6.6262499,1506
6.628749900000001,1828
6.6312499,2017
6.633749900000001,1886
6.6362499,1575
6.6387499000000005,1342
6.641249900000001,1353
6.6437499,1614
6.646249900000001,1936
6.6487499,2038
6.651249900000001,1828
6.6537499,1521
6.656249900000001,1359
6.6587499,1461
6.6612499000000005,1767
6.663749900000001,2043
6.6662499,2031
6.668749900000001,1762
6.6712499,1484
6.673749900000001,1400
6.6762499,1587
6.678749900000001,1917
6.6812499,2126
6.6837499000000005,2010
6.686249900000001,1699
6.6887499,1469
6.691249900000001,1490
6.6937499,1751
6.696249900000001,2078
6.6987499,2188
6.7012499000000005,1983
6.703749900000001,1670
6.7062499,1511
6.708749900000001,1604
6.7112499,1912
6.713749900000001,2186
6.7162499,2167
6.718749900000001,1882
6.7212499,1593
6.7237499000000005,1504
6.726249900000001,1679
6.7287499,2007
6.731249900000001,2201
6.7337499,2075
6.736249900000001,1756
6.7387499,1500
6.741249900000001,1482
6.7437499,1709
6.7462499000000005,2019
6.748749900000001,2094
6.7512499,1859
6.753749900000001,1522
6.7562499,1332
6.758749900000001,1409
6.7612499,1698
6.7637499000000005,1964
6.766249900000001,1948
6.7687499,1664
6.771249900000001,1363
6.7737499,1263
6.776249900000001,1419
6.7787499,1730
6.781249900000001,1925
6.7837499,1812
6.7862499000000005,1513
6.788749900000001,1272
6.7912499,1274
6.793749900000001,1514
6.7962499,1820
6.798749900000001,1922
6.8012499,1687
6.803749900000001,1369
6.8062499,1216
6.8087499000000005,1327
6.811249900000001,1616
6.8137499,1898
6.816249900000001,1898
6.8187499,1629
6.821249900000001,1332
6.8237499,1235
6.8262499000000005,1403
6.828749900000001,1730
6.8312499,1944
6.833749900000001,1840
6.8362499,1537
6.838749900000001,1295
6.8412499,1289
6.843749900000001,1525
6.8462499,1838
6.8487499000000005,1949
6.851249900000001,1746
6.8537499,1427
6.856249900000001,1245
6.8587499,1313
6.861249900000001,1598
6.8637499,1870
6.866249900000001,1883
6.8687499,1629
6.8712499000000005,1347
6.873749900000001,1256
6.8762499,1427
6.878749900000001,1751
6.8812499,1959
6.883749900000001,1851
6.8862499,1537
6.8887499000000005,1276
6.891249900000001,1253
6.8937499,1493
6.896249900000001,1815
6.8987499,1948
6.901249900000001,1757
6.9037499,1443
6.906249900000001,1260
6.9087499,1335
6.9112499000000005,1627
6.913749900000001,1909
6.9162499,1912
6.918749900000001,1645
6.9212499,1348
6.923749900000001,1252
6.9262499,1417
6.928749900000001,1740
6.9312499,1951
6.9337499000000005,1849
6.936249900000001,1548
6.9387499,1292
6.941249900000001,1268
6.9437499,1495
6.946249900000001,1814
6.9487499,1944
6.9512499000000005,1761
6.953749900000001,1443
6.9562499,1255
6.958749900000001,1330
6.9612499,1629
6.963749900000001,1920
6.9662499,1932
6.968749900000001,1661
6.9712499,1355
6.9737499000000005,1240
6.976249900000001,1388
6.9787499,1709
6.981249900000001,1932
6.9837499,1835
6.986249900000001,1540
6.9887499,1303
6.991249900000001,1295
6.9937499,1527
6.9962499000000005,1840
6.998749900000001,1964
7.0012499,1772
7.003749900000001,1456
7.0062499,1271
7.008749900000001,1347
7.0112499,1640
7.0137499000000005,1928
7.016249900000001,1951
7.0187499,1696
7.021249900000001,1411
7.0237499,1313
7.026249900000001,1466
7.0287499,1790
7.031249900000001,2022
7.0337499,1935
7.0362499000000005,1633
7.038749900000001,1380
7.0412499,1353
7.043749900000001,1575
7.0462499,1893
7.048749900000001,2023
7.0512499,1843
7.053749900000001,1542
7.0562499,1363
7.0587499000000005,1437
7.061249900000001,1724
7.0637499,2009
7.066249900000001,2035
7.0687499,1770
7.071249900000001,1455
7.0737499,1327
7.0762499000000005,1464
7.078749900000001,1775
7.0812499,1983
7.083749900000001,1875
7.0862499,1556
7.088749900000001,1290
7.0912499,1269
7.093749900000001,1501
7.0962499,1827
7.0987499000000005,1964
7.101249900000001,1780
7.1037499,1455
7.106249900000001,1260
7.1087499,1326
7.111249900000001,1612
7.1137499,1899
7.116249900000001,1927
7.1187499,1677
7.1212499000000005,1388
7.123749900000001,1279
7.1262499,1427
7.128749900000001,1741
7.1312499,1962
7.133749900000001,1873
7.1362499,1571
7.1387499000000005,1301
7.141249900000001,1264
7.1437499,1485
7.146249900000001,1803
7.1487499,1952
7.151249900000001,1795
7.1537499,1522
7.156249900000001,1408
7.1587499,1587
7.1612499000000005,2027
7.163749900000001,2502
7.1662499,2731
7.168749900000001,2655
7.1712499,2475
7.173749900000001,2379
7.1762499,2423
7.178749900000001,2550
7.1812499,2539
7.1837499000000005,2204
7.186249900000001,1640
7.1887499,1126
7.191249900000001,928
7.1937499,1086
7.196249900000001,1430
7.1987499,1637
7.2012499000000005,1533
7.203749900000001,1281
7.2062499,1134
7.208749900000001,1218
7.2112499,1513
7.213749900000001,1809
7.2162499,1848
7.218749900000001,1604
7.2212499,1311
7.2237499000000005,1205
7.226249900000001,1363
7.2287499,1696
7.231249900000001,1938
7.2337499,1862
7.236249900000001,1558
7.2387499,1287
7.241249900000001,1248
7.2437499,1471
7.2462499000000005,1801
7.248749900000001,1954
7.2512499,1786
7.253749900000001,1477
7.2562499,1266
7.258749900000001,1318
7.2612499,1601
7.2637499000000005,1898
7.266249900000001,1941
7.2687499,1698
7.271249900000001,1398
7.2737499,1277
7.276249900000001,1416
7.2787499,1732
7.281249900000001,1970
7.2837499,1896
7.2862499000000005,1598
7.288749900000001,1334
7.2912499,1301
7.293749900000001,1550
7.2962499,1869
7.298749900000001,1988
7.3012499,1817
7.303749900000001,1509
7.3062499,1308
7.3087499000000005,1364
7.311249900000001,1650
7.3137499,1954
7.316249900000001,1999
7.3187499,1756
7.321249900000001,1458
7.3237499,1332
7.3262499000000005,1467
7.328749900000001,1783
7.3312499,2025
7.333749900000001,1956
7.3362499,1653
7.338749900000001,1380
7.3412499,1339
7.343749900000001,1556
7.3462499,1890
7.3487499000000005,2057
7.351249900000001,1907
7.3537499,1608
7.356249900000001,1408
7.3587499,1461
7.361249900000001,1740
7.3637499,2044
7.366249900000001,2096
7.3687499,1854
7.3712499000000005,1556
7.373749900000001,1445
7.3762499,1593
7.378749900000001,1927
7.3812499,2173
7.383749900000001,2101
7.3862499,1798
7.3887499000000005,1527
7.391249900000001,1492
7.3937499,1717
7.396249900000001,2060
7.3987499,2218
7.401249900000001,2060
7.4037499,1748
7.406249900000001,1535
7.4087499,1574
7.4112499000000005,1843
7.413749900000001,2135
7.4162499,2181
7.418749900000001,1943
7.4212499,1638
7.423749900000001,1501
7.4262499,1624
7.428749900000001,1930
7.4312499,2159
7.4337499000000005,2075
7.436249900000001,1753
7.4387499,1464
7.441249900000001,1398
7.4437499,1595
7.446249900000001,1919
7.4487499,2067
7.4512499000000005,1886
7.453749900000001,1550
7.4562499,1313
7.458749900000001,1335
7.4612499,1592
7.463749900000001,1878
7.4662499,1925
7.468749900000001,1674
7.4712499,1361
7.4737499000000005,1226
7.476249900000001,1355
7.4787499,1672
7.481249900000001,1914
7.4837499,1844
7.486249900000001,1542
7.4887499,1258
7.491249900000001,1206
7.4937499,1416
7.4962499000000005,1746
7.498749900000001,1911
7.5012499,1749
7.503749900000001,1429
7.5062499,1210
7.508749900000001,1232
7.5112499,1496
7.5137499000000005,1799
7.516249900000001,1872
7.5187499,1648
7.521249900000001,1347
7.5237499,1213
7.526249900000001,1334
7.5287499,1643
7.531249900000001,1883
7.5337499,1820
7.5362499000000005,1513
7.538749900000001,1221
7.5412499,1160
7.543749900000001,1372
7.5462499,1716
7.548749900000001,1899
7.5512499,1753
7.553749900000001,1440
7.5562499,1218
7.5587499000000005,1247
7.561249900000001,1516
7.5637499,1819
7.566249900000001,1875
7.5687499,1632
7.571249900000001,1324
7.5737499,1182
7.5762499000000005,1293
7.578749900000001,1606
7.5812499,1859
7.583749900000001,1809
7.5862499,1519
7.588749900000001,1239
7.5912499,1181
7.593749900000001,1382
7.5962499,1712
7.5987499000000005,1878
7.601249900000001,1714
7.6037499,1388
7.606249900000001,1168
7.6087499,1198
7.611249900000001,1475
7.6137499,1785
7.616249900000001,1856
7.6187499,1617
7.6212499000000005,1301
7.623749900000001,1150
7.6262499,1263
7.628749900000001,1572
7.6312499,1817
7.633749900000001,1767
7.6362499,1482
7.6387499000000005,1210
7.641249900000001,1155
7.6437499,1353
7.646249900000001,1677
7.6487499,1846
7.651249900000001,1703
7.6537499,1403
7.656249900000001,1187
7.6587499,1205
7.6612499000000005,1459
7.663749900000001,1749
7.6662499,1806
7.668749900000001,1575
7.6712499,1271
7.673749900000001,1134
7.6762499,1253
7.678749900000001,1564
7.6812499,1817
7.6837499000000005,1780
7.686249900000001,1495
7.6887499,1213
7.691249900000001,1148
7.6937499,1345
7.696249900000001,1675
7.6987499,1856
7.7012499000000005,1706
7.703749900000001,1385
7.7062499,1152
7.708749900000001,1171
7.7112499,1440
7.713749900000001,1761
7.7162499,1853
7.718749900000001,1635
7.7212499,1319
7.7237499000000005,1166
7.726249900000001,1272
7.7287499,1582
7.731249900000001,1835
7.7337499,1791
7.736249900000001,1501
7.7387499,1208
7.741249900000001,1123
7.743749900000001,1295
7.7462499000000005,1609
7.748749900000001,1774
7.7512499,1624
7.753749900000001,1298
7.7562499,1071
7.758749900000001,1081
7.7612499,1324
7.7637499000000005,1624
7.766249900000001,1693
7.7687499,1475
7.771249900000001,1181
7.7737499,1036
7.776249900000001,1137
7.7787499,1432
7.781249900000001,1696
7.7837499,1629
7.7862499000000005,1326
7.788749900000001,1047
7.7912499,990
7.793749900000001,1182
7.7962499,1516
7.798749900000001,1699
7.8012499,1558
7.803749900000001,1231
7.806249900000001,989
7.8087499000000005,994
7.811249900000001,1260
7.8137499,1583
7.816249900000001,1688
7.8187499,1513
7.821249900000001,1274
7.8237499,1219
7.8262499000000005,1471
7.828749900000001,1954
7.8312499,2404
7.833749900000001,2545
7.8362499,2391
7.838749900000001,2139
7.8412499,1988
7.843749900000001,2006
7.8462499,2114
7.8487499000000005,2056
7.851249900000001,1667
7.8537499,1111
7.856249900000001,705
7.8587499,631
7.861249900000001,883
7.8637499,1240
7.866249900000001,1401
7.868749900000001,1258
7.8712499000000005,1002
7.873749900000001,871
7.8762499,981
7.878749900000001,1292
7.8812499,1556
7.883749900000001,1529
7.8862499,1250
7.8887499000000005,974
7.891249900000001,910
7.8937499,1102
7.896249900000001,1434
7.8987499,1633
7.901249900000001,1513
7.9037499,1205
7.906249900000001,973
7.9087499,982
7.9112499000000005,1231
7.913749900000001,1538
7.9162499,1632
7.918749900000001,1422
7.9212499,1115
7.923749900000001,952
7.9262499,1055
7.928749900000001,1366
7.931249900000001,1630
7.9337499000000005,1606
7.936249900000001,1330
7.9387499,1045
7.941249900000001,968
7.9437499,1140
7.946249900000001,1458
7.9487499,1646
7.9512499000000005,1527
7.953749900000001,1221
7.9562499,987
7.958749900000001,997
7.9612499,1252
7.963749900000001,1561
7.9662499,1648
7.968749900000001,1434
7.9712499,1127
7.9737499000000005,978
7.976249900000001,1082
7.9787499,1390
7.981249900000001,1651
7.9837499,1630
7.986249900000001,1343
7.9887499,1050
7.991249900000001,966
7.993749900000001,1145
7.9962499000000005,1475
7.998749900000001,1677
8.0012499,1571
8.003749899999999,1271
8.0062499,1042
8.0087499,1050
8.0112499,1293
8.013749899999999,1603
8.0162499,1695
8.0187499,1482
8.021249899999999,1171
8.0237499,1015
8.0262499,1119
8.0287499,1430
8.031249899999999,1706
8.0337499,1704
8.0362499,1440
8.0387499,1160
8.0412499,1076
8.0437499,1248
8.0462499,1575
8.048749899999999,1786
8.0512499,1695
8.0537499,1408
8.0562499,1179
8.0587499,1190
8.0612499,1434
8.0637499,1735
8.066249899999999,1820
8.0687499,1614
8.0712499,1311
8.0737499,1152
8.076249899999999,1242
8.0787499,1546
8.0812499,1817
8.083749899999999,1806
8.0862499,1530
8.0887499,1240
8.0912499,1142
8.093749899999999,1290
8.0962499,1583
8.0987499,1757
8.1012499,1627
8.1037499,1298
8.1062499,1034
8.1087499,1005
8.111249899999999,1227
8.1137499,1543
8.1162499,1654
8.1187499,1448
8.1212499,1124
8.1237499,939
8.1262499,1008
8.128749899999999,1289
8.1312499,1553
8.1337499,1540
8.1362499,1261
8.138749899999999,961
8.1412499,862
8.1437499,1019
8.146249899999999,1343
8.1487499,1561
8.1512499,1466
8.1537499,1160
8.156249899999999,902
8.1587499,883
8.1612499,1118
8.1637499,1437
8.1662499,1548
8.1687499,1343
8.1712499,1032
8.173749899999999,860
8.1762499,945
8.1787499,1250
8.1812499,1546
8.1837499,1559
8.1862499,1285
8.1887499,976
8.191249899999999,862
8.1937499,1016
8.1962499,1343
8.1987499,1559
8.201249899999999,1464
8.2037499,1166
8.2062499,936
8.208749899999999,929
8.2112499,1165
8.2137499,1475
8.2162499,1593
8.218749899999999,1395
8.2212499,1079
8.2237499,902
8.2262499,986
8.2287499,1282
8.2312499,1571
8.2337499,1585
8.236249899999999,1313
8.2387499,1008
8.2412499,902
8.2437499,1057
8.2462499,1384
8.2487499,1611
8.2512499,1529
8.253749899999999,1232
8.2562499,982
8.2587499,970
8.2612499,1190
8.263749899999999,1498
8.2662499,1600
8.2687499,1397
8.271249899999999,1084
8.2737499,899
8.2762499,971
8.2787499,1271
8.281249899999999,1574
8.2837499,1567
8.2862499,1300
8.2887499,1024
8.2912499,947
8.2937499,1100
8.2962499,1413
8.298749899999999,1616
8.3012499,1521
8.3037499,1221
8.3062499,979
8.3087499,974
8.3112499,1219
8.3137499,1545
8.316249899999999,1666
8.3187499,1471
8.3212499,1152
8.3237499,965
8.326249899999999,1037
8.3287499,1329
8.3312499,1624
8.333749899999999,1653
8.3362499,1397
8.3387499,1106
8.3412499,1010
8.343749899999999,1168
8.3462499,1490
8.3487499,1709
8.3512499,1621
8.3537499,1316
8.3562499,1066
8.3587499,1060
8.361249899999999,1295
8.3637499,1625
8.3662499,1764
8.3687499,1593
8.3712499,1287
8.3737499,1097
8.3762499,1155
8.378749899999999,1421
8.3812499,1690
8.3837499,1696
8.3862499,1426
8.388749899999999,1121
8.3912499,1007
8.3937499,1156
8.396249899999999,1480
8.3987499,1703
8.4012499,1616
8.4037499,1306
8.406249899999999,1045
8.4087499,1018
8.4112499,1245
8.4137499,1563
8.4162499,1685
8.4187499,1508
8.4212499,1192
8.423749899999999,1000
8.4262499,1073
8.4287499,1369
8.4312499,1662
8.4337499,1688
8.4362499,1434
8.4387499,1139
8.441249899999999,1026
8.4437499,1177
8.4462499,1503
8.4487499,1722
8.451249899999999,1622
8.4537499,1306
8.4562499,1044
8.458749899999999,1026
8.4612499,1287
8.4637499,1683
8.4662499,1936
8.468749899999999,1902
8.4712499,1745
8.4737499,1719
8.4762499,1954
8.4787499,2381
8.4812499,2748
8.4837499,2760
8.486249899999999,2378
8.4887499,1873
8.4912499,1509
8.4937499,1392
8.4962499,1466
8.4987499,1508
8.5012499,1327
8.503749899999999,1021
8.5062499,815
8.5087499,862
8.5112499,1155
8.513749899999999,1521
8.5162499,1680
8.5187499,1514
8.521249899999999,1211
8.5237499,1023
8.5262499,1089
8.5287499,1377
8.531249899999999,1675
8.5337499,1720
8.5362499,1474
8.5387499,1166
8.5412499,1042
8.5437499,1185
8.5462499,1514
8.548749899999999,1756
8.5512499,1693
8.5537499,1405
8.5562499,1147
8.5587499,1119
8.5612499,1345
8.5637499,1672
8.566249899999999,1817
8.5687499,1643
8.5712499,1321
8.5737499,1111
8.5762499,1161
8.5787499,1450
8.5812499,1754
8.583749899999999,1806
8.5862499,1577
8.5887499,1276
8.5912499,1140
8.593749899999999,1276
8.5962499,1592
8.5987499,1832
8.6012499,1774
8.6037499,1488
8.6062499,1224
8.6087499,1182
8.611249899999999,1395
8.6137499,1722
8.6162499,1882
8.6187499,1724
8.6212499,1408
8.6237499,1194
8.6262499,1242
8.628749899999999,1530
8.6312499,1841
8.6337499,1896
8.6362499,1654
8.6387499,1351
8.6412499,1227
8.6437499,1364
8.646249899999999,1682
8.6487499,1923
8.6512499,1865
8.6537499,1582
8.656249899999999,1319
8.6587499,1281
8.6612499,1500
8.6637499,1833
8.6662499,2010
8.6687499,1859
8.6712499,1551
8.673749899999999,1343
8.6762499,1388
8.6787499,1674
8.6812499,1985
8.6837499,2048
8.6862499,1814
8.6887499,1519
8.691249899999999,1397
8.6937499,1540
8.6962499,1883
8.6987499,2146
8.7012499,2077
8.7037499,1766
8.7062499,1479
8.708749899999999,1427
8.7112499,1641
8.7137499,1983
8.7162499,2155
8.718749899999999,2006
8.7212499,1695
8.7237499,1487
8.7262499,1527
8.7287499,1795
8.7312499,2086
8.7337499,2135
8.736249899999999,1885
8.7387499,1566
8.7412499,1409
8.7437499,1521
8.7462499,1817
8.7487499,2046
8.7512499,1978
8.753749899999999,1670
8.7562499,1377
8.7587499,1306
8.7612499,1493
8.7637499,1803
8.7662499,1959
8.7687499,1803
8.771249899999999,1500
8.7737499,1282
8.7762499,1334
8.7787499,1609
8.781249899999999,1901
8.7837499,1936
8.7862499,1691
8.7887499,1379
8.7912499,1237
8.7937499,1359
8.7962499,1675
8.798749899999999,1923
8.8012499,1875
8.8037499,1592
8.8062499,1318
8.8087499,1256
8.8112499,1456
8.8137499,1786
8.816249899999999,1964
8.8187499,1819
8.8212499,1511
8.8237499,1292
8.8262499,1327
8.8287499,1598
8.8312499,1898
8.833749899999999,1959
8.8362499,1724
8.8387499,1424
8.8412499,1292
8.843749899999999,1421
8.8462499,1743
8.8487499,1996
8.8512499,1940
8.8537499,1635
8.8562499,1347
8.8587499,1293
8.861249899999999,1504
8.8637499,1843
8.8662499,2023
8.8687499,1873
8.8712499,1569
8.8737499,1356
8.8762499,1384
8.878749899999999,1638
8.8812499,1935
8.8837499,2002
8.8862499,1775
8.8887499,1459
8.8912499,1303
8.8937499,1417
8.896249899999999,1733
8.8987499,1991
8.9012499,1951
8.9037499,1675
8.906249899999999,1408
8.9087499,1353
8.9112499,1551
8.9137499,1877
8.9162499,2043
8.9187499,1899
8.9212499,1600
8.923749899999999,1382
8.9262499,1413
8.9287499,1672
8.9312499,1977
8.9337499,2046
8.9362499,1814
8.9387499,1504
8.941249899999999,1355
8.9437499,1464
8.9462499,1775
8.9487499,2039
8.9512499,2015
8.9537499,1745
8.9562499,1475
8.958749899999999,1409
8.9612499,1598
8.9637499,1912
8.9662499,2081
8.968749899999999,1941
8.9712499,1641
8.9737499,1422
8.9762499,1443
8.9787499,1703
8.9812499,2023
8.9837499,2107
8.986249899999999,1867
8.9887499,1545
8.9912499,1395
8.9937499,1524
8.9962499,1843
8.9987499,2120
9.0012499,2102
9.003749899999999,1825
9.0062499,1540
9.0087499,1463
9.0112499,1648
9.0137499,1977
9.0162499,2167
9.0187499,2044
9.021249899999999,1743
9.0237499,1530
9.0262499,1559
9.0287499,1824
9.031249899999999,2136
9.0337499,2215
9.0362499,1981
9.0387499,1651
9.0412499,1477
9.0437499,1561
9.0462499,1848
9.048749899999999,2102
9.0512499,2070
9.0537499,1783
9.0562499,1493
9.0587499,1419
9.0612499,1611
9.0637499,1940
9.066249899999999,2123
9.0687499,1990
9.0712499,1685
9.0737499,1456
9.0762499,1472
9.0787499,1722
9.0812499,2017
9.083749899999999,2099
9.0862499,1891
9.0887499,1600
9.0912499,1445
9.093749899999999,1540
9.0962499,1833
9.0987499,2099
9.1012499,2080
9.1037499,1799
9.1062499,1511
9.1087499,1429
9.111249899999999,1612
9.1137499,1944
9.1162499,2149
9.1187499,2048
9.1212499,1788
9.1237499,1637
9.1262499,1757
9.128749899999999,2146
9.1312499,2608
9.1337499,2864
9.1362499,2816
9.1387499,2628
9.1412499,2478
9.1437499,2475
9.146249899999999,2607
9.1487499,2660
9.1512499,2415
9.1537499,1906
9.156249899999999,1405
9.1587499,1187
9.1612499,1324
9.1637499,1679
9.1662499,1946
9.1687499,1890
9.1712499,1632
9.173749899999999,1417
9.1762499,1435
9.1787499,1693
9.1812499,2019
9.1837499,2112
9.1862499,1896
9.1887499,1587
9.191249899999999,1430
9.1937499,1525
9.1962499,1824
9.1987499,2094
9.2012499,2083
9.2037499,1815
9.2062499,1533
9.208749899999999,1438
9.2112499,1588
9.2137499,1906
9.2162499,2125
9.218749899999999,2039
9.2212499,1759
9.2237499,1543
9.2262499,1563
9.2287499,1817
9.2312499,2125
9.2337499,2205
9.236249899999999,1973
9.2387499,1658
9.2412499,1496
9.2437499,1596
9.2462499,1894
9.2487499,2167
9.2512499,2152
9.253749899999999,1883
9.2562499,1598
9.2587499,1506
9.2612499,1670
9.2637499,1993
9.2662499,2184
9.2687499,2067
9.271249899999999,1762
9.2737499,1524
9.2762499,1561
9.2787499,1838
9.281249899999999,2164
9.2837499,2257
9.2862499,2051
9.2887499,1732
9.2912499,1561
9.2937499,1650
9.2962499,1954
9.298749899999999,2231
9.3012499,2228
9.3037499,1964
9.3062499,1685
9.3087499,1596
9.3112499,1746
9.3137499,2059
9.316249899999999,2262
9.3187499,2168
9.3212499,1894
9.3237499,1674
9.3262499,1690
9.3287499,1952
9.3312499,2278
9.333749899999999,2391
9.3362499,2186
9.3387499,1857
9.3412499,1672
9.343749899999999,1756
9.3462499,2059
9.3487499,2341
9.3512499,2355
9.3537499,2106
9.3562499,1825
9.3587499,1733
9.361249899999999,1901
9.3637499,2233
9.3662499,2452
9.3687499,2357
9.3712499,2059
9.3737499,1815
9.3762499,1809
9.378749899999999,2043
9.3812499,2350
9.3837499,2447
9.3862499,2241
9.3887499,1927
9.3912499,1741
9.3937499,1801
9.396249899999999,2075
9.3987499,2341
9.4012499,2326
9.4037499,2041
9.406249899999999,1733
9.4087499,1624
9.4112499,1772
9.4137499,2083
9.4162499,2283
9.4187499,2173
9.4212499,1854
9.423749899999999,1595
9.4262499,1574
9.4287499,1817
9.4312499,2149
9.4337499,2268
9.4362499,2057
9.4387499,1722
9.441249899999999,1524
9.4437499,1580
9.4462499,1861
9.4487499,2149
9.4512499,2173
9.4537499,1915
9.4562499,1619
9.458749899999999,1508
9.4612499,1658
9.4637499,1990
9.4662499,2215
9.468749899999999,2128
9.4712499,1827
9.4737499,1572
9.4762499,1556
9.4787499,1795
9.4812499,2118
9.4837499,2236
9.486249899999999,2035
9.4887499,1712
9.4912499,1517
9.4937499,1580
9.4962499,1872
9.4987499,2170
9.5012499,2194
9.503749899999999,1941
9.5062499,1648
9.5087499,1540
9.5112499,1690
9.5137499,2015
9.5162499,2234
9.5187499,2139
9.521249899999999,1836
9.5237499,1587
9.5262499,1572
9.5287499,1811
9.531249899999999,2141
9.5337499,2270
9.5362499,2067
9.5387499,1733
9.5412499,1535
9.5437499,1596
9.5462499,1885
9.548749899999999,2172
9.5512499,2191
9.5537499,1923
9.5562499,1625
9.5587499,1525
9.5612499,1696
9.5637499,2038
9.566249899999999,2271
9.5687499,2176
9.5712499,1861
9.5737499,1601
9.5762499,1580
9.5787499,1799
9.5812499,2112
9.583749899999999,2236
9.5862499,2041
9.5887499,1719
9.5912499,1532
9.593749899999999,1600
9.5962499,1886
9.5987499,2175
9.6012499,2196
9.6037499,1933
9.6062499,1635
9.6087499,1527
9.611249899999999,1690
9.6137499,2027
9.6162499,2251
9.6187499,2162
9.6212499,1853
9.6237499,1587
9.6262499,1559
9.628749899999999,1798
9.6312499,2135
9.6337499,2265
9.6362499,2062
9.6387499,1725
9.6412499,1530
9.6437499,1608
9.646249899999999,1911
9.6487499,2210
9.6512499,2244
9.6537499,1983
9.656249899999999,1675
9.6587499,1551
9.6612499,1691
9.6637499,2019
9.6662499,2246
9.6687499,2152
9.6712499,1832
9.673749899999999,1579
9.6762499,1577
9.6787499,1832
9.6812499,2176
9.6837499,2313
9.6862499,2120
9.6887499,1788
9.691249899999999,1582
9.6937499,1650
9.6962499,1940
9.6987499,2236
9.7012499,2270
9.7037499,2022
9.7062499,1716
9.708749899999999,1563
9.7112499,1690
9.7137499,2048
9.7162499,2317
9.718749899999999,2241
9.7212499,1956
9.7237499,1717
9.7262499,1701
9.7287499,1919
9.7312499,2223
9.7337499,2339
9.736249899999999,2131
9.7387499,1785
9.7412499,1567
9.7437499,1617
9.7462499,1902
9.7487499,2201
9.7512499,2238
9.753749899999999,1991
9.7562499,1683
9.7587499,1550
9.7612499,1667
9.7637499,1970
9.7662499,2201
9.7687499,2130
9.771249899999999,1836
9.7737499,1566
9.7762499,1522
9.7787499,1749
9.781249899999999,2070
9.7837499,2201
9.7862499,2039
9.7887499,1725
9.7912499,1527
9.7937499,1582
9.7962499,1864
9.798749899999999,2155
9.8012499,2181
9.8037499,1915
9.8062499,1612
9.8087499,1490
9.8112499,1637
9.8137499,1993
9.816249899999999,2299
9.8187499,2320
9.8212499,2143
9.8237499,2035
9.8262499,2213
9.8287499,2644
9.8312499,3121
9.833749899999999,3209
9.8362499,3038
9.8387499,2600
9.8412499,2204
9.843749899999999,2002
9.8462499,2012
9.8487499,2060
9.8512499,1919
9.8537499,1582
9.8562499,1268
9.8587499,1179
9.861249899999999,1382
9.8637499,1772
9.8662499,2060
9.8687499,2017
9.8712499,1733
9.8737499,1475
9.8762499,1440
9.878749899999999,1662
9.8812499,1998
9.8837499,2160
9.8862499,1994
9.8887499,1667
9.8912499,1456
9.8937499,1500
9.896249899999999,1775
9.8987499,2085
9.9012499,2141
9.9037499,1893
9.906249899999999,1582
9.9087499,1445
9.9112499,1569
9.9137499,1885
9.9162499,2135
9.9187499,2075
9.9212499,1770
9.923749899999999,1509
9.9262499,1477
9.9287499,1696
9.9312499,2031
9.9337499,2188
9.9362499,2020
9.9387499,1695
9.941249899999999,1474
9.9437499,1506
9.9462499,1778
9.9487499,2088
9.9512499,2151
9.9537499,1896
9.9562499,1574
9.958749899999999,1438
9.9612499,1588
9.9637499,1922
9.9662499,2175
9.968749899999999,2117
9.9712499,1824
9.9737499,1558
9.9762499,1509
9.9787499,1724
9.9812499,2065
9.9837499,2230
9.986249899999999,2059
9.9887499,1725
9.9912499,1503
9.9937499,1548
9.9962499,1836
9.9987499,2154
10.0012499,2228
10.003749899999999,1985
10.0062499,1667
10.0087499,1516
10.0112499,1645
10.0137499,1975
10.0162499,2230
10.0187499,2176
10.021249899999999,1880
10.0237499,1603
10.0262499,1559
10.0287499,1780
10.031249899999999,2126
10.0337499,2304
10.0362499,2149
10.0387499,1832
10.0412499,1622
10.0437499,1664
10.0462499,1946
10.048749899999999,2267
10.0512499,2339
10.0537499,2107
10.0562499,1799
10.0587499,1658
10.0612499,1778
10.0637499,2094
10.066249899999999,2347
10.0687499,2292
10.0712499,1990
10.0737499,1696
10.0762499,1629
10.0787499,1833
10.0812499,2178
10.083749899999999,2367
10.0862499,2220
10.0887499,1886
10.0912499,1640
10.093749899999999,1643
10.0962499,1890
10.0987499,2175
10.1012499,2212
10.1037499,1948
10.1062499,1617
10.1087499,1446
10.111249899999999,1558
10.1137499,1877
10.1162499,2130
10.1187499,2075
10.1212499,1767
10.1237499,1466
10.1262499,1388
10.128749899999999,1572
10.1312499,1891
10.1337499,2067
10.1362499,1935
10.1387499,1619
10.1412499,1395
10.1437499,1429
10.146249899999999,1701
10.1487499,2023
10.1512499,2097
10.1537499,1849
10.156249899999999,1506
10.1587499,1332
10.1612499,1445
10.1637499,1778
10.1662499,2056
10.1687499,2027
10.1712499,1728
10.173749899999999,1437
10.1762499,1368
10.1787499,1563
10.1812499,1896
10.1837499,2085
10.1862499,1935
10.1887499,1604
10.191249899999999,1364
10.1937499,1385
10.1962499,1659
10.1987499,1967
10.2012499,2041
10.2037499,1814
10.2062499,1511
10.208749899999999,1368
10.2112499,1498
10.2137499,1827
10.2162499,2091
10.218749899999999,2048
10.2212499,1746
10.2237499,1453
10.2262499,1385
10.2287499,1585
10.2312499,1912
10.2337499,2085
10.236249899999999,1936
10.2387499,1622
10.2412499,1403
10.2437499,1426
10.2462499,1685
10.2487499,1996
10.2512499,2070
10.253749899999999,1832
10.2562499,1511
10.2587499,1351
10.2612499,1469
10.2637499,1801
10.2662499,2073
10.2687499,2028
10.271249899999999,1720
10.2737499,1403
10.2762499,1348
10.2787499,1566
10.281249899999999,1877
10.2837499,2064
10.2862499,1932
10.2887499,1616
10.2912499,1374
10.2937499,1385
10.2962499,1648
10.298749899999999,1967
10.3012499,2054
10.3037499,1825
10.3062499,1503
10.3087499,1330
10.3112499,1437
10.3137499,1764
10.316249899999999,2039
10.3187499,2014
10.3212499,1725
10.3237499,1438
10.3262499,1376
10.3287499,1580
10.3312499,1909
10.333749899999999,2072
10.3362499,1922
10.3387499,1592
10.3412499,1350
10.343749899999999,1379
10.3462499,1630
10.3487499,1965
10.3512499,2075
10.3537499,1848
10.3562499,1513
10.3587499,1339
10.361249899999999,1435
10.3637499,1741
10.3662499,2015
10.3687499,1988
10.3712499,1690
10.3737499,1388
10.3762499,1321
10.378749899999999,1530
10.3812499,1882
10.3837499,2077
10.3862499,1938
10.3887499,1611
10.3912499,1359
10.3937499,1364
10.396249899999999,1633
10.3987499,1967
10.4012499,2075
10.4037499,1859
10.406249899999999,1530
10.4087499,1353
10.4112499,1450
10.4137499,1757
10.4162499,2030
10.4187499,2012
10.4212499,1738
10.423749899999999,1455
10.4262499,1377
10.4287499,1563
10.4312499,1902
10.4337499,2110
10.4362499,1986
10.4387499,1658
10.441249899999999,1408
10.4437499,1409
10.4462499,1651
10.4487499,1959
10.4512499,2031
10.4537499,1785
10.4562499,1448
10.458749899999999,1287
10.4612499,1397
10.4637499,1703
10.4662499,1965
10.468749899999999,1940
10.4712499,1650
10.4737499,1351
10.4762499,1266
10.4787499,1451
10.4812499,1788
10.4837499,1990
10.486249899999999,1862
10.4887499,1543
10.4912499,1301
10.4937499,1319
10.4962499,1582
10.4987499,1894
10.5012499,1988
10.503749899999999,1769
10.5062499,1446
10.5087499,1268
10.5112499,1345
10.5137499,1637
10.5162499,1907
10.5187499,1893
10.521249899999999,1611
10.5237499,1330
10.5262499,1305
10.5287499,1592
10.531249899999999,2054
10.5337499,2396
10.5362499,2428
10.5387499,2302
10.5412499,2233
10.5437499,2352
10.5462499,2639
10.548749899999999,2874
10.5512499,2803
10.5537499,2368
10.5562499,1803
10.5587499,1377
10.5612499,1235
10.5637499,1388
10.566249899999999,1603
10.5687499,1603
10.5712499,1374
10.5737499,1144
10.5762499,1118
10.5787499,1340
10.5812499,1695
10.583749899999999,1907
10.5862499,1796
10.5887499,1488
10.5912499,1245
10.593749899999999,1260
10.5962499,1527
10.5987499,1859
10.6012499,1969
10.6037499,1749
10.6062499,1429
10.6087499,1264
10.611249899999999,1361
10.6137499,1670
10.6162499,1956
10.6187499,1946
10.6212499,1664
10.6237499,1369
10.6262499,1279
10.628749899999999,1451
10.6312499,1780
10.6337499,2001
10.6362499,1896
10.6387499,1582
10.6412499,1327
10.6437499,1330
10.646249899999999,1587
10.6487499,1911
10.6512499,2033
10.6537499,1828
10.656249899999999,1490
10.6587499,1301
10.6612499,1382
10.6637499,1687
10.6662499,1972
10.6687499,1977
10.6712499,1712
10.673749899999999,1419
10.6762499,1318
10.6787499,1487
10.6812499,1814
10.6837499,2030
10.6862499,1920
10.6887499,1606
10.691249899999999,1355
10.6937499,1351
10.6962499,1608
10.6987499,1944
10.7012499,2075
10.7037499,1873
10.7062499,1546
10.708749899999999,1356
10.7112499,1434
10.7137499,1733
10.7162499,2023
10.718749899999999,2030
10.7212499,1757
10.7237499,1463
10.7262499,1377
10.7287499,1566
10.7312499,1914
10.7337499,2136
10.736249899999999,2031
10.7387499,1712
10.7412499,1455
10.7437499,1445
10.7462499,1688
10.7487499,2020
10.7512499,2149
10.753749899999999,1962
10.7562499,1656
10.7587499,1487
10.7612499,1579
10.7637499,1896
10.7662499,2191
10.7687499,2183
10.771249899999999,1894
10.7737499,1601
10.7762499,1516
10.7787499,1667
10.781249899999999,2010
10.7837499,2241
10.7862499,2139
10.7887499,1819
10.7912499,1556
10.7937499,1535
10.7962499,1764
10.798749899999999,2088
10.8012499,2212
10.8037499,2010
10.8062499,1679
10.8087499,1480
10.8112499,1532
10.8137499,1803
10.816249899999999,2072
10.8187499,2064
10.8212499,1780
10.8237499,1466
10.8262499,1348
10.8287499,1503
10.8312499,1824
10.833749899999999,2027
10.8362499,1906
10.8387499,1592
10.8412499,1329
10.843749899999999,1314
10.8462499,1548
10.8487499,1873
10.8512499,1996
10.8537499,1791
10.8562499,1463
10.8587499,1264
10.861249899999999,1334
10.8637499,1630
10.8662499,1925
10.8687499,1941
10.8712499,1672
10.8737499,1366
10.8762499,1264
10.878749899999999,1429
10.8812499,1766
10.8837499,2002
10.8862499,1901
10.8887499,1582
10.8912499,1310
10.8937499,1297
10.896249899999999,1533
10.8987499,1864
10.9012499,2001
10.9037499,1811
10.906249899999999,1496
10.9087499,1311
10.9112499,1379
10.9137499,1656
10.9162499,1928
10.9187499,1940
10.9212499,1680
10.923749899999999,1382
10.9262499,1289
10.9287499,1455
10.9312499,1791
10.9337499,2025
10.9362499,1933
10.9387499,1612
10.941249899999999,1335
10.9437499,1303
10.9462499,1543
10.9487499,1886
10.9512499,2035
10.9537499,1844
10.9562499,1522
10.958749899999999,1326
10.9612499,1390
10.9637499,1667
10.9662499,1949
10.968749899999999,1967
10.9712499,1699
10.9737499,1390
10.9762499,1276
10.9787499,1437
10.9812499,1762
10.9837499,1988
10.986249899999999,1902
10.9887499,1596
10.9912499,1330
10.9937499,1301
10.9962499,1530
10.9987499,1853
11.0012499,1991
11.003749899999999,1801
11.0062499,1477
11.0087499,1279
11.0112499,1351
11.0137499,1658
11.0162499,1969
11.0187499,1985
11.021249899999999,1682
11.0237499,1340
11.0262499,1210
11.0287499,1364
11.031249899999999,1711
11.0337499,1956
11.0362499,1888
11.0387499,1600
11.0412499,1335
11.0437499,1305
11.0462499,1533
11.048749899999999,1862
11.0512499,2007
11.0537499,1828
11.0562499,1513
11.0587499,1310
11.0612499,1368
11.0637499,1662
11.066249899999999,1967
11.0687499,2001
11.0712499,1737
11.0737499,1438
11.0762499,1327
11.0787499,1484
11.0812499,1814
11.083749899999999,2046
11.0862499,1962
11.0887499,1667
11.0912499,1413
11.093749899999999,1388
11.0962499,1619
11.0987499,1938
11.1012499,2067
11.1037499,1870
11.1062499,1529
11.1087499,1306
11.111249899999999,1358
11.1137499,1641
11.1162499,1933
11.1187499,1959
11.1212499,1680
11.1237499,1372
11.1262499,1260
11.128749899999999,1414
11.1312499,1746
11.1337499,1981
11.1362499,1888
11.1387499,1579
11.1412499,1310
11.1437499,1274
11.146249899999999,1495
11.1487499,1830
11.1512499,1990
11.1537499,1817
11.156249899999999,1498
11.1587499,1289
11.1612499,1339
11.1637499,1621
11.1662499,1915
11.1687499,1951
11.1712499,1688
11.173749899999999,1377
11.1762499,1258
11.1787499,1406
11.1812499,1746
11.1837499,2009
11.1862499,1991
11.1887499,1774
11.191249899999999,1627
11.1937499,1759
11.1962499,2186
11.1987499,2708
11.2012499,2992
11.2037499,2879
11.2062499,2492
11.208749899999999,2114
11.2112499,1935
11.2137499,1978
11.2162499,2031
11.218749899999999,1828
11.2212499,1403
11.2237499,1008
11.2262499,865
11.2287499,1036
11.2312499,1422
11.2337499,1740
11.236249899999999,1735
11.2387499,1477
11.2412499,1221
11.2437499,1187
11.2462499,1411
11.2487499,1749
11.2512499,1915
11.253749899999999,1759
11.2562499,1448
11.2587499,1235
11.2612499,1277
11.2637499,1564
11.2662499,1873
11.2687499,1928
11.271249899999999,1691
11.2737499,1359
11.2762499,1229
11.2787499,1364
11.281249899999999,1688
11.2837499,1912
11.2862499,1859
11.2887499,1561
11.2912499,1284
11.2937499,1239
11.2962499,1458
11.298749899999999,1804
11.3012499,1977
11.3037499,1811
11.3062499,1492
11.3087499,1276
11.3112499,1316
11.3137499,1596
11.316249899999999,1907
11.3187499,1964
11.3212499,1716
11.3237499,1408
11.3262499,1276
11.3287499,1401
11.3312499,1727
11.333749899999999,1981
11.3362499,1919
11.3387499,1614
11.3412499,1321
11.343749899999999,1255
11.3462499,1467
11.3487499,1811
11.3512499,2002
11.3537499,1859
11.3562499,1551
11.3587499,1332
11.361249899999999,1368
11.3637499,1641
11.3662499,1952
11.3687499,2015
11.3712499,1775
11.3737499,1456
11.3762499,1306
11.378749899999999,1432
11.3812499,1764
11.3837499,2033
11.3862499,1996
11.3887499,1708
11.3912499,1434
11.3937499,1380
11.396249899999999,1590
11.3987499,1933
11.4012499,2110
11.4037499,1956
11.406249899999999,1641
11.4087499,1427
11.4112499,1469
11.4137499,1749
11.4162499,2068
11.4187499,2141
11.4212499,1906
11.423749899999999,1587
11.4262499,1438
11.4287499,1564
11.4312499,1888
11.4337499,2147
11.4362499,2112
11.4387499,1827
11.441249899999999,1548
11.4437499,1487
11.4462499,1683
11.4487499,2020
11.4512499,2189
11.4537499,2025
11.4562499,1687
11.458749899999999,1446
11.4612499,1459
11.4637499,1716
11.4662499,2009
11.468749899999999,2049
11.4712499,1785
11.4737499,1451
11.4762499,1297
11.4787499,1414
11.4812499,1728
11.4837499,1980
11.486249899999999,1922
11.4887499,1614
11.4912499,1310
11.4937499,1227
11.4962499,1419
11.4987499,1746
11.5012499,1915
11.503749899999999,1754
11.5062499,1435
11.5087499,1214
11.5112499,1245
11.5137499,1522
11.5162499,1835
11.5187499,1907
11.521249899999999,1672
11.5237499,1350
11.5262499,1194
11.5287499,1303
11.531249899999999,1622
11.5337499,1882
11.5362499,1846
11.5387499,1559
11.5412499,1276
11.5437499,1202
11.5462499,1397
11.548749899999999,1725
11.5512499,1902
11.5537499,1756
11.5562499,1435
11.5587499,1206
11.5612499,1234
11.5637499,1516
11.566249899999999,1849
11.5687499,1946
11.5712499,1698
11.5737499,1342
11.5762499,1165
11.5787499,1279
11.5812499,1611
11.583749899999999,1888
11.5862499,1856
11.5887499,1563
11.5912499,1269
11.593749899999999,1195
11.5962499,1405
11.5987499,1754
11.6012499,1948
11.6037499,1799
11.6062499,1469
11.6087499,1229
11.611249899999999,1252
11.6137499,1525
11.6162499,1844
11.6187499,1922
11.6212499,1691
11.6237499,1372
11.6262499,1216
11.628749899999999,1322
11.6312499,1637
11.6337499,1893
11.6362499,1844
11.6387499,1556
11.6412499,1261
11.6437499,1189
11.646249899999999,1388
11.6487499,1728
11.6512499,1922
11.6537499,1777
11.656249899999999,1438
11.6587499,1197
11.6612499,1216
11.6637499,1493
11.6662499,1827
11.6687499,1920
11.6712499,1688
11.673749899999999,1361
11.6762499,1203
11.6787499,1313
11.6812499,1625
11.6837499,1888
11.6862499,1856
11.6887499,1569
11.691249899999999,1282
11.6937499,1214
11.6962499,1409
11.6987499,1732
11.7012499,1917
11.7037499,1775
11.7062499,1458
11.708749899999999,1226
11.7112499,1245
11.7137499,1509
11.7162499,1835
11.718749899999999,1935
11.7212499,1711
11.7237499,1388
11.7262499,1224
11.7287499,1324
11.7312499,1640
11.7337499,1917
11.736249899999999,1902
11.7387499,1619
11.7412499,1330
11.7437499,1258
11.7462499,1446
11.7487499,1774
11.7512499,1959
11.753749899999999,1819
11.7562499,1513
11.7587499,1287
11.7612499,1314
11.7637499,1580
11.7662499,1893
11.7687499,1962
11.771249899999999,1706
11.7737499,1368
11.7762499,1206
11.7787499,1297
11.781249899999999,1601
11.7837499,1873
11.7862499,1861
11.7887499,1582
11.7912499,1276
11.7937499,1169
11.7962499,1337
11.798749899999999,1659
11.8012499,1851
11.8037499,1732
11.8062499,1432
11.8087499,1203
11.8112499,1218
11.8137499,1477
11.816249899999999,1795
11.8187499,1890
11.8212499,1658
11.8237499,1326
11.8262499,1155
11.8287499,1248
11.8312499,1558
11.833749899999999,1819
11.8362499,1795
11.8387499,1514
11.8412499,1232
11.843749899999999,1184
11.8462499,1432
11.8487499,1864
11.8512499,2194
11.8537499,2234
11.8562499,2099
11.8587499,2036
11.861249899999999,2184
11.8637499,2516
11.8662499,2805
11.8687499,2789
11.8712499,2394
11.8737499,1844
11.8762499,1419
11.878749899999999,1264
11.8812499,1371
11.8837499,1527
11.8862499,1480
11.8887499,1232
11.8912499,997
11.8937499,978
11.896249899999999,1210
11.8987499,1567
11.9012499,1772
11.9037499,1648
11.906249899999999,1332
11.9087499,1098
11.9112499,1113
11.9137499,1371
11.9162499,1699
11.9187499,1819
11.9212499,1624
11.923749899999999,1310
11.9262499,1139
11.9287499,1226
11.9312499,1527
11.9337499,1799
11.9362499,1795
11.9387499,1527
11.941249899999999,1239
11.9437499,1147
11.9462499,1318
11.9487499,1641
11.9512499,1830
11.9537499,1703
11.9562499,1395
11.958749899999999,1160
11.9612499,1168
11.9637499,1421
11.9662499,1749
11.9687499,1851
11.9712499,1630
11.9737499,1293
11.9762499,1119
11.9787499,1221
11.9812499,1542
11.9837499,1840
11.986249899999999,1848
11.9887499,1580
11.9912499,1279
11.9937499,1181
11.9962499,1355
11.9987499,1690
12.0012499,1896
12.003749899999999,1786
12.0062499,1475
12.0087499,1219
12.0112499,1202
12.0137499,1429
12.0162499,1740
12.0187499,1857
12.021249899999999,1666
12.0237499,1350
12.0262499,1176
12.0287499,1281
12.0312499,1611
12.0337499,1904
12.0362499,1899
12.0387499,1616
12.0412499,1313
12.0437499,1227
12.0462499,1406
12.048749899999999,1741
12.0512499,1954
12.0537499,1844
12.0562499,1530
12.0587499,1277
12.0612499,1274
12.0637499,1530
12.066249899999999,1865
12.0687499,1998
12.0712499,1812
12.0737499,1508
12.0762499,1329
12.0787499,1411
12.0812499,1706
12.083749899999999,1994
12.0862499,2014
12.0887499,1757
12.0912499,1471
12.0937499,1377
12.0962499,1542
12.0987499,1856
12.1012499,2057
12.1037499,1943
12.1062499,1632
12.1087499,1380
12.111249899999999,1372
12.1137499,1612
12.1162499,1935
12.1187499,2043
12.1212499,1820
12.1237499,1475
12.1262499,1266
12.128749899999999,1326
12.1312499,1614
12.1337499,1880
12.1362499,1865
12.1387499,1571
12.1412499,1250
12.1437499,1137
12.146249899999999,1289
12.1487499,1598
12.1512499,1793
12.1537499,1674
12.1562499,1343
12.1587499,1077
12.1612499,1065
12.1637499,1310
12.1662499,1638
12.1687499,1756
12.1712499,1566
12.173749899999999,1239
12.1762499,1047
12.1787499,1121
12.1812499,1419
12.1837499,1703
12.1862499,1704
12.1887499,1430
12.191249899999999,1134
12.1937499,1040
12.1962499,1205
12.1987499,1522
12.2012499,1728
12.2037499,1625
12.2062499,1319
12.208749899999999,1065
12.2112499,1050
12.2137499,1285
12.2162499,1617
12.2187499,1743
12.2212499,1543
12.2237499,1223
12.2262499,1031
12.2287499,1105
12.2312499,1401
12.2337499,1691
12.236249899999999,1708
12.2387499,1440
12.2412499,1139
12.2437499,1034
12.2462499,1197
12.2487499,1529
12.2512499,1748
12.253749899999999,1650
12.2562499,1335
12.2587499,1073
12.2612499,1055
12.2637499,1297
12.2662499,1648
12.2687499,1754
12.271249899999999,1543
12.2737499,1211
12.2762499,1031
12.2787499,1105
12.2812499,1405
12.2837499,1688
12.2862499,1698
12.2887499,1429
12.2912499,1119
12.2937499,1005
12.2962499,1165
12.298749899999999,1501
12.3012499,1737
12.3037499,1659
12.3062499,1358
12.3087499,1094
12.3112499,1060
12.3137499,1276
12.316249899999999,1590
12.3187499,1719
12.3212499,1533
12.3237499,1218
12.3262499,1028
12.3287499,1094
12.3312499,1388
12.333749899999999,1683
12.3362499,1706
12.3387499,1443
12.3412499,1139
12.3437499,1026
12.3462499,1177
12.3487499,1500
12.3512499,1725
12.3537499,1637
12.3562499,1316
12.3587499,1050
12.361249899999999,1032
12.3637499,1269
12.3662499,1603
12.3687499,1743
12.3712499,1569
12.3737499,1247
12.3762499,1042
12.378749899999999,1103
12.3812499,1409
12.3837499,1730
12.3862499,1756
12.3887499,1487
12.3912499,1171
12.3937499,1042
12.396249899999999,1187
12.3987499,1521
12.4012499,1754
12.4037499,1677
12.4062499,1382
12.4087499,1123
12.4112499,1086
12.4137499,1306
12.4162499,1640
12.4187499,1793
12.4212499,1632
12.423749899999999,1329
12.4262499,1139
12.4287499,1194
12.4312499,1475
12.4337499,1753
12.4362499,1759
12.4387499,1475
12.441249899999999,1156
12.4437499,1031
12.4462499,1173
12.4487499,1501
12.4512499,1733
12.4537499,1645
12.4562499,1345
12.458749899999999,1089
12.4612499,1058
12.4637499,1282
12.4662499,1609
12.4687499,1743
12.4712499,1551
12.4737499,1218
12.4762499,1013
12.4787499,1077
12.4812499,1372
12.4837499,1677
12.486249899999999,1717
12.4887499,1469
12.4912499,1165
12.4937499,1039
12.4962499,1171
12.4987499,1485
12.5012499,1706
12.503749899999999,1611
12.5062499,1293
12.5087499,1032
12.5112499,1021
12.5137499,1289
12.5162499,1687
12.5187499,1935
12.521249899999999,1888
12.5237499,1735
12.5262499,1716
12.5287499,1957
12.5312499,2399
12.5337499,2787
12.5362499,2811
12.5387499,2429
12.5412499,1911
12.5437499,1538
12.5462499,1427
12.548749899999999,1508
12.5512499,1545
12.5537499,1345
12.5562499,999
12.5587499,746
12.5612499,754
12.5637499,1037
12.566249899999999,1427
12.5687499,1622
12.5712499,1475
12.5737499,1177
12.5762499,987
12.5787499,1055
12.5812499,1353
12.583749899999999,1664
12.5862499,1711
12.5887499,1455
12.5912499,1144
12.5937499,1021
12.5962499,1165
12.5987499,1492
12.6012499,1719
12.6037499,1638
12.6062499,1330
12.6087499,1061
12.611249899999999,1037
12.6137499,1274
12.6162499,1621
12.6187499,1782
12.6212499,1616
12.6237499,1292
12.6262499,1082
12.628749899999999,1126
12.6312499,1397
12.6337499,1688
12.6362499,1732
12.6387499,1492
12.6412499,1194
12.6437499,1079
12.646249899999999,1219
12.6487499,1543
12.6512499,1783
12.6537499,1716
12.6562499,1414
12.6587499,1144
12.6612499,1100
12.6637499,1321
12.6662499,1662
12.6687499,1830
12.6712499,1666
12.673749899999999,1340
12.6762499,1124
12.6787499,1169
12.6812499,1450
12.6837499,1756
12.6862499,1815
12.6887499,1582
12.691249899999999,1272
12.6937499,1139
12.6962499,1269
12.6987499,1595
12.7012499,1843
12.7037499,1790
12.7062499,1506
12.708749899999999,1242
12.7112499,1216
12.7137499,1440
12.7162499,1749
12.7187499,1885
12.7212499,1703
12.7237499,1390
12.7262499,1198
12.7287499,1264
12.7312499,1572
12.7337499,1896
12.736249899999999,1959
12.7387499,1717
12.7412499,1406
12.7437499,1281
12.7462499,1427
12.7487499,1762
12.7512499,2025
12.753749899999999,1972
12.7562499,1669
12.7587499,1384
12.7612499,1334
12.7637499,1554
12.7662499,1896
12.7687499,2065
12.771249899999999,1883
12.7737499,1563
12.7762499,1363
12.7787499,1411
12.7812499,1688
12.7837499,1993
12.7862499,2036
12.7887499,1775
12.7912499,1445
12.7937499,1281
12.7962499,1382
12.798749899999999,1682
12.8012499,1923
12.8037499,1864
12.8062499,1561
12.8087499,1264
12.8112499,1194
12.8137499,1387
12.816249899999999,1708
12.8187499,1857
12.8212499,1693
12.8237499,1368
12.8262499,1119
12.8287499,1135
12.8312499,1401
12.833749899999999,1709
12.8362499,1774
12.8387499,1542
12.8412499,1231
12.8437499,1092
12.8462499,1216
12.8487499,1538
12.8512499,1806
12.8537499,1769
12.8562499,1484
12.8587499,1203
12.861249899999999,1129
12.8637499,1305
12.8662499,1612
12.8687499,1772
12.8712499,1627
12.8737499,1324
12.8762499,1126
12.878749899999999,1177
12.8812499,1463
12.8837499,1772
12.8862499,1833
12.8887499,1593
12.8912499,1274
12.8937499,1124
12.896249899999999,1252
12.8987499,1579
12.9012499,1836
12.9037499,1783
12.9062499,1480
12.9087499,1197
12.9112499,1147
12.9137499,1358
12.9162499,1690
12.9187499,1865
12.9212499,1716
12.923749899999999,1397
12.9262499,1171
12.9287499,1202
12.9312499,1482
12.9337499,1809
12.9362499,1896
12.9387499,1658
12.941249899999999,1324
12.9437499,1165
12.9462499,1271
12.9487499,1580
12.9512499,1828
12.9537499,1777
12.9562499,1487
12.958749899999999,1213
12.9612499,1163
12.9637499,1372
12.9662499,1711
12.9687499,1890
12.9712499,1740
12.9737499,1421
12.9762499,1197
12.9787499,1227
12.9812499,1501
12.9837499,1803
12.986249899999999,1864
12.9887499,1630
12.9912499,1324
12.9937499,1177
12.9962499,1287
12.9987499,1600
13.0012499,1854
13.003749899999999,1815
13.0062499,1533
13.0087499,1261
13.0112499,1210
13.0137499,1414
13.0162499,1748
13.0187499,1923
13.021249899999999,1766
13.0237499,1440
13.0262499,1214
13.0287499,1247
13.0312499,1529
13.0337499,1857
13.0362499,1943
13.0387499,1706
13.0412499,1380
13.0437499,1208
13.0462499,1308
13.048749899999999,1630
13.0512499,1907
13.0537499,1885
13.0562499,1608
13.0587499,1329
13.0612499,1269
13.0637499,1472
13.066249899999999,1814
13.0687499,2007
13.0712499,1862
13.0737499,1532
13.0762499,1289
13.0787499,1301
13.0812499,1572
13.083749899999999,1898
13.0862499,1986
13.0887499,1764
13.0912499,1461
13.0937499,1314
13.0962499,1429
13.0987499,1740
13.1012499,1991
13.1037499,1943
13.1062499,1641
13.1087499,1347
13.111249899999999,1277
13.1137499,1471
13.1162499,1801
13.1187499,1983
13.1212499,1833
13.1237499,1517
13.1262499,1284
13.128749899999999,1301
13.1312499,1567
13.1337499,1882
13.1362499,1962
13.1387499,1730
13.1412499,1406
13.1437499,1243
13.146249899999999,1355
13.1487499,1677
13.1512499,1952
13.1537499,1927
13.1562499,1646
13.1587499,1368
13.1612499,1289
13.1637499,1459
13.1662499,1774
13.1687499,1944
13.1712499,1807
13.173749899999999,1519
13.1762499,1332
13.1787499,1426
13.1812499,1788
13.1837499,2231
13.1862499,2471
13.1887499,2425
13.191249899999999,2288
13.1937499,2273
13.1962499,2434
13.1987499,2702
13.2012499,2837
13.2037499,2620
13.2062499,2114
13.208749899999999,1587
13.2112499,1260
13.2137499,1250
13.2162499,1479
13.2187499,1650
13.2212499,1558
13.2237499,1303
13.2262499,1139
13.2287499,1208
13.2312499,1503
13.2337499,1833
13.236249899999999,1930
13.2387499,1717
13.2412499,1411
13.2437499,1258
13.2462499,1374
13.2487499,1690
13.2512499,1962
13.253749899999999,1938
13.2562499,1658
13.2587499,1374
13.2612499,1316
13.2637499,1533
13.2662499,1882
13.2687499,2057
13.271249899999999,1880
13.2737499,1548
13.2762499,1335
13.2787499,1351
13.2812499,1617
13.2837499,1943
13.2862499,2039
13.2887499,1820
13.2912499,1509
13.2937499,1359
13.2962499,1467
13.298749899999999,1770
13.3012499,2036
13.3037499,2010
13.3062499,1725
13.3087499,1443
13.3112499,1369
13.3137499,1563
13.316249899999999,1901
13.3187499,2099
13.3212499,1975
13.3237499,1661
13.3262499,1417
13.3287499,1424
13.3312499,1679
13.333749899999999,2002
13.3362499,2104
13.3387499,1891
13.3412499,1583
13.3437499,1426
13.3462499,1525
13.3487499,1828
13.3512499,2104
13.3537499,2088
13.3562499,1807
13.3587499,1521
13.361249899999999,1437
13.3637499,1619
13.3662499,1956
13.3687499,2162
13.3712499,2046
13.3737499,1737
13.3762499,1503
13.378749899999999,1516
13.3812499,1777
13.3837499,2106
13.3862499,2205
13.3887499,1998
13.3912499,1688
13.3937499,1517
13.396249899999999,1611
13.3987499,1920
13.4012499,2201
13.4037499,2197
13.4062499,1907
13.4087499,1653
13.4112499,1579
13.4137499,1769
13.4162499,2112
13.4187499,2317
13.4212499,2196
13.423749899999999,1886
13.4262499,1648
13.4287499,1650
13.4312499,1899
13.4337499,2207
13.4362499,2299
13.4387499,2081
13.441249899999999,1761
13.4437499,1590
13.4462499,1680
13.4487499,1986
13.4512499,2257
13.4537499,2233
13.4562499,1936
13.458749899999999,1621
13.4612499,1509
13.4637499,1669
13.4662499,1994
13.4687499,2188
13.4712499,2052
13.4737499,1719
13.4762499,1456
13.4787499,1442
13.4812499,1677
13.4837499,1993
13.486249899999999,2091
13.4887499,1878
13.4912499,1553
13.4937499,1369
13.4962499,1451
13.4987499,1746
13.5012499,2030
13.503749899999999,2028
13.5062499,1743
13.5087499,1440
13.5112499,1340
13.5137499,1495
13.5162499,1819
13.5187499,2038
13.521249899999999,1941
13.5237499,1641
13.5262499,1400
13.5287499,1400
13.5312499,1648
13.5337499,1973
13.5362499,2078
13.5387499,1864
13.5412499,1540
13.5437499,1359
13.5462499,1451
13.548749899999999,1761
13.5512499,2049
13.5537499,2052
13.5562499,1774
13.5587499,1472
13.5612499,1372
13.5637499,1543
13.566249899999999,1869
13.5687499,2080
13.5712499,1973
13.5737499,1662
13.5762499,1417
13.5787499,1416
13.5812499,1666
13.583749899999999,1998
13.5862499,2114
13.5887499,1906
13.5912499,1587
13.5937499,1411
13.5962499,1504
13.5987499,1809
13.6012499,2089
13.6037499,2083
13.6062499,1804
13.6087499,1504
13.611249899999999,1411
13.6137499,1598
13.6162499,1930
13.6187499,2107
13.6212499,1965
13.6237499,1641
13.6262499,1388
13.628749899999999,1387
13.6312499,1641
13.6337499,1978
13.6362499,2102
13.6387499,1904
13.6412499,1588
13.6437499,1405
13.646249899999999,1472
13.6487499,1764
13.6512499,2060
13.6537499,2081
13.6562499,1824
13.6587499,1522
13.6612499,1416
13.6637499,1569
13.6662499,1893
13.6687499,2115
13.6712499,2019
13.673749899999999,1712
13.6762499,1466
13.6787499,1456
13.6812499,1699
13.6837499,2030
13.6862499,2149
13.6887499,1949
13.691249899999999,1629
13.6937499,1443
13.6962499,1529
13.6987499,1833
13.7012499,2130
13.7037499,2143
13.7062499,1870
13.708749899999999,1564
13.7112499,1459
13.7137499,1624
13.7162499,1962
13.7187499,2197
13.7212499,2112
13.7237499,1803
13.7262499,1538
13.7287499,1509
13.7312499,1725
13.7337499,2035
13.736249899999999,2143
13.7387499,1935
13.7412499,1609
13.7437499,1419
13.7462499,1493
13.7487499,1788
13.7512499,2070
13.753749899999999,2078
13.7562499,1811
13.7587499,1517
13.7612499,1414
13.7637499,1593
13.7662499,1917
13.7687499,2114
13.771249899999999,1990
13.7737499,1698
13.7762499,1443
13.7787499,1429
13.7812499,1662
13.7837499,1993
13.7862499,2125
13.7887499,1943
13.7912499,1629
13.7937499,1432
13.7962499,1496
13.798749899999999,1778
13.8012499,2060
13.8037499,2068
13.8062499,1806
13.8087499,1525
13.8112499,1455
13.8137499,1679
13.816249899999999,2114
13.8187499,2476
13.8212499,2552
13.8237499,2425
13.8262499,2331
13.8287499,2437
13.8312499,2713
13.833749899999999,2969
13.8362499,2950
13.8387499,2557
13.8412499,1996
13.8437499,1543
13.8462499,1363
13.8487499,1488
13.8512499,1711
13.8537499,1746
13.8562499,1535
13.8587499,1290
13.861249899999999,1234
13.8637499,1430
13.8662499,1788
13.8687499,2039
13.8712499,1967
13.8737499,1669
13.8762499,1421
13.878749899999999,1400
13.8812499,1624
13.8837499,1938
13.8862499,2068
13.8887499,1880
13.8912499,1567
13.8937499,1384
13.896249899999999,1463
13.8987499,1762
13.9012499,2062
13.9037499,2089
13.9062499,1825
13.9087499,1524
13.9112499,1413
13.9137499,1572
13.9162499,1907
13.9187499,2144
13.9212499,2043
13.923749899999999,1714
13.9262499,1442
13.9287499,1417
13.9312499,1654
13.9337499,1994
13.9362499,2138
13.9387499,1959
13.941249899999999,1645
13.9437499,1453
13.9462499,1522
13.9487499,1819
13.9512499,2118
13.9537499,2143
13.9562499,1877
13.958749899999999,1567
13.9612499,1455
13.9637499,1603
13.9662499,1933
13.9687499,2172
13.9712499,2088
13.9737499,1762
13.9762499,1479
13.9787499,1438
13.9812499,1677
13.9837499,2035
13.986249899999999,2205
13.9887499,2033
13.9912499,1696
13.9937499,1485
13.9962499,1527
13.9987499,1785
14.0012499,2056
14.003749899999999,2070
14.0062499,1819
14.0087499,1559
14.0112499,1477
14.0137499,1643
14.0162499,1985
14.0187499,2196
14.021249899999999,2091
14.0237499,1791
14.0262499,1516
14.0287499,1461
14.0312499,1703
14.0337499,2093
14.0362499,2307
14.0387499,2191
14.0412499,1927
14.0437499,1762
14.0462499,1819
14.048749899999999,2109
14.0512499,2392
14.0537499,2396
14.0562499,2133
14.0587499,1827
14.0612499,1674
14.0637499,1772
14.066249899999999,2041
14.0687499,2217
14.0712499,2135
14.0737499,1875
14.0762499,1683
14.0787499,1730
14.0812499,1990
14.083749899999999,2294
14.0862499,2376
14.0887499,2133
14.0912499,1759
14.0937499,1514
14.0962499,1538
14.0987499,1814
14.1012499,2109
14.1037499,2159
14.1062499,1933
14.1087499,1633
14.111249899999999,1474
14.1137499,1580
14.1162499,1877
14.1187499,2099
14.1212499,2012
14.1237499,1685
14.1262499,1401
14.128749899999999,1384
14.1312499,1633
14.1337499,1965
14.1362499,2083
14.1387499,1878
14.1412499,1537
14.1437499,1337
14.146249899999999,1437
14.1487499,1770
14.1512499,2094
14.1537499,2123
14.1562499,1835
14.1587499,1474
14.1612499,1300
14.1637499,1435
14.1662499,1790
14.1687499,2064
14.1712499,1998
14.173749899999999,1664
14.1762499,1358
14.1787499,1313
14.1812499,1572
14.1837499,1946
14.1862499,2135
14.1887499,1977
14.191249899999999,1656
14.1937499,1445
14.1962499,1484
14.1987499,1749
14.2012499,2060
14.2037499,2122
14.2062499,1878
14.208749899999999,1582
14.2112499,1472
14.2137499,1621
14.2162499,1936
14.2187499,2146
14.2212499,2044
14.2237499,1709
14.2262499,1442
14.2287499,1429
14.2312499,1669
14.2337499,1998
14.236249899999999,2104
14.2387499,1890
14.2412499,1563
14.2437499,1395
14.2462499,1501
14.2487499,1832
14.2512499,2122
14.253749899999999,2094
14.2562499,1772
14.2587499,1474
14.2612499,1414
14.2637499,1627
14.2662499,1994
14.2687499,2255
14.271249899999999,2205
14.2737499,1912
14.2762499,1624
14.2787499,1538
14.2812499,1730
14.2837499,2072
14.2862499,2228
14.2887499,2049
14.2912499,1690
14.2937499,1442
14.2962499,1471
14.298749899999999,1770
14.3012499,2146
14.3037499,2260
14.3062499,2049
14.3087499,1743
14.3112499,1572
14.3137499,1661
14.316249899999999,1985
14.3187499,2260
14.3212499,2201
14.3237499,1880
14.3262499,1579
14.3287499,1509
14.3312499,1717
14.333749899999999,2064
14.3362499,2223
14.3387499,2025
14.3412499,1679
14.3437499,1474
14.3462499,1580
14.3487499,1933
14.3512499,2304
14.3537499,2389
14.3562499,2136
14.3587499,1783
14.361249899999999,1593
14.3637499,1677
14.3662499,1980
14.3687499,2228
14.3712499,2189
14.3737499,1898
14.3762499,1603
14.378749899999999,1524
14.3812499,1733
14.3837499,2096
14.3862499,2296
14.3887499,2149
14.3912499,1811
14.3937499,1564
14.396249899999999,1588
14.3987499,1854
14.4012499,2155
14.4037499,2210
14.4062499,1952
14.4087499,1641
14.4112499,1532
14.4137499,1672
14.4162499,1991
14.4187499,2231
14.4212499,2168
14.423749899999999,1862
14.4262499,1569
14.4287499,1495
14.4312499,1685
14.4337499,2015
14.4362499,2176
14.4387499,2010
14.441249899999999,1677
14.4437499,1451
14.4462499,1488
14.4487499,1767
14.4512499,2080
14.4537499,2130
14.4562499,1869
14.458749899999999,1548
14.4612499,1400
14.4637499,1521
14.4662499,1835
14.4687499,2106
14.4712499,2099
14.4737499,1872
14.4762499,1706
14.4787499,1817
14.4812499,2201
14.4837499,2711
14.486249899999999,3055
14.4887499,3056
14.4912499,2813
14.4937499,2526
14.4962499,2381
14.4987499,2410
14.5012499,2460
14.503749899999999,2280
14.5062499,1814
14.5087499,1334
14.5112499,1102
14.5137499,1214
14.5162499,1587
14.5187499,1935
14.521249899999999,1967
14.5237499,1706
14.5262499,1426
14.5287499,1359
14.5312499,1561
14.5337499,1904
14.5362499,2089
14.5387499,1944
14.5412499,1616
14.5437499,1371
14.5462499,1392
14.548749899999999,1675
14.5512499,2012
14.5537499,2099
14.5562499,1883
14.5587499,1579
14.5612499,1430
14.5637499,1537
14.566249899999999,1841
14.5687499,2085
14.5712499,2033
14.5737499,1735
14.5762499,1437
14.5787499,1343
14.5812499,1530
14.583749899999999,1907
14.5862499,2144
14.5887499,2039
14.5912499,1720
14.5937499,1466
14.5962499,1485
14.5987499,1767
14.6012499,2093
14.6037499,2167
14.6062499,1923
14.6087499,1600
14.611249899999999,1434
14.6137499,1538
14.6162499,1853
14.6187499,2115
14.6212499,2080
14.6237499,1790
14.6262499,1508
14.628749899999999,1445
14.6312499,1646
14.6337499,1983
14.6362499,2173
14.6387499,2035
14.6412499,1719
14.6437499,1490
14.646249899999999,1516
14.6487499,1782
14.6512499,2107
14.6537499,2189
14.6562499,1954
14.6587499,1638
14.6612499,1482
14.6637499,1583
14.6662499,1883
14.6687499,2144
14.6712499,2117
14.673749899999999,1841
14.6762499,1574
14.6787499,1516
14.6812499,1712
14.6837499,2049
14.6862499,2226
14.6887499,2083
14.691249899999999,1769
14.6937499,1558
14.6962499,1579
14.6987499,1832
14.7012499,2141
14.7037499,2230
14.7062499,2009
14.708749899999999,1714
14.7112499,1588
14.7137499,1709
14.7162499,2019
14.7187499,2280
14.7212499,2241
14.7237499,1954
14.7262499,1667
14.7287499,1601
14.7312499,1790
14.7337499,2117
14.736249899999999,2299
14.7387499,2155
14.7412499,1827
14.7437499,1569
14.7462499,1546
14.7487499,1770
14.7512499,2068
14.753749899999999,2159
14.7562499,1914
14.7587499,1601
14.7612499,1453
14.7637499,1563
14.7662499,1835
14.7687499,2075
14.771249899999999,2022
14.7737499,1717
14.7762499,1417
14.7787499,1334
14.7812499,1509
14.7837499,1825
14.7862499,2006
14.7887499,1865
14.7912499,1548
14.7937499,1310
14.7962499,1322
14.798749899999999,1583
14.8012499,1888
14.8037499,1956
14.8062499,1733
14.8087499,1421
14.8112499,1258
14.8137499,1355
14.816249899999999,1653
14.8187499,1914
14.8212499,1901
14.8237499,1645
14.8262499,1369
14.8287499,1289
14.8312499,1455
14.833749899999999,1775
14.8362499,1980
14.8387499,1862
14.8412499,1561
14.8437499,1326
14.8462499,1332
14.8487499,1583
14.8512499,1886
14.8537499,1965
14.8562499,1738
14.8587499,1419
14.861249899999999,1263
14.8637499,1366
14.8662499,1674
14.8687499,1940
14.8712499,1914
14.8737499,1632
14.8762499,1345
14.878749899999999,1269
14.8812499,1451
14.8837499,1777
14.8862499,1970
14.8887499,1841
14.8912499,1529
14.8937499,1297
14.896249899999999,1310
14.8987499,1563
14.9012499,1873
14.9037499,1965
14.9062499,1746
14.9087499,1427
14.9112499,1260
14.9137499,1356
14.9162499,1659
14.9187499,1932
14.9212499,1917
14.923749899999999,1643
14.9262499,1350
14.9287499,1269
14.9312499,1446
14.9337499,1770
14.9362499,1964
14.9387499,1835
14.941249899999999,1521
14.9437499,1279
14.9462499,1290
14.9487499,1554
14.9512499,1873
14.9537499,1970
14.9562499,1749
14.958749899999999,1429
14.9612499,1263
14.9637499,1359
14.9662499,1679
14.9687499,1969
14.9712499,1954
14.9737499,1667
14.9762499,1368
14.9787499,1274
14.9812499,1445
14.9837499,1769
14.986249899999999,1967
14.9887499,1853
14.9912499,1551
14.9937499,1318
14.9962499,1329
14.9987499,1583
15.0012499,1901
15.003749899999999,1996
15.0062499,1777
15.0087499,1456
15.0112499,1289
15.0137499,1388
15.0162499,1693
15.0187499,1961
15.021249899999999,1946
15.0237499,1682
15.0262499,1403
15.0287499,1326
15.0312499,1504
15.0337499,1835
15.0362499,2041
15.0387499,1927
15.0412499,1617
15.0437499,1369
15.0462499,1363
15.048749899999999,1608
15.0512499,1927
15.0537499,2030
15.0562499,1817
15.0587499,1509
15.0612499,1351
15.0637499,1464
15.066249899999999,1788
15.0687499,2075
15.0712499,2064
15.0737499,1777
15.0762499,1471
15.0787499,1371
15.0812499,1535
15.083749899999999,1849
15.0862499,2038
15.0887499,1902
15.0912499,1574
15.0937499,1311
15.0962499,1301
15.0987499,1561
15.1012499,1898
15.1037499,2012
15.1062499,1804
15.1087499,1482
15.111249899999999,1301
15.1137499,1380
15.1162499,1677
15.1187499,1946
15.1212499,1940
15.1237499,1670
15.1262499,1380
15.128749899999999,1292
15.1312499,1461
15.1337499,1782
15.1362499,1978
15.1387499,1859
15.1412499,1553
15.1437499,1310
15.146249899999999,1305
15.1487499,1540
15.1512499,1846
15.1537499,1954
15.1562499,1754
15.1587499,1463
15.1612499,1327
15.1637499,1485
15.1662499,1888
15.1687499,2307
15.1712499,2471
15.173749899999999,2379
15.1762499,2262
15.1787499,2313
15.1812499,2545
15.1837499,2818
15.1862499,2863
15.1887499,2529
15.191249899999999,1970
15.1937499,1464
15.1962499,1206
15.1987499,1269
15.2012499,1504
15.2037499,1616
15.2062499,1456
15.208749899999999,1206
15.2112499,1090
15.2137499,1216
15.2162499,1546
15.2187499,1844
15.2212499,1862
15.2237499,1604
15.2262499,1316
15.2287499,1223
15.2312499,1388
15.2337499,1725
15.236249899999999,1946
15.2387499,1840
15.2412499,1532
15.2437499,1279
15.2462499,1271
15.2487499,1511
15.2512499,1833
15.253749899999999,1944
15.2562499,1730
15.2587499,1422
15.2612499,1264
15.2637499,1350
15.2662499,1648
15.2687499,1928
15.271249899999999,1930
15.2737499,1658
15.2762499,1359
15.2787499,1261
15.2812499,1426
15.2837499,1753
15.2862499,1967
15.2887499,1865
15.2912499,1561
15.2937499,1316
15.2962499,1311
15.298749899999999,1556
15.3012499,1882
15.3037499,1999
15.3062499,1799
15.3087499,1485
15.3112499,1308
15.3137499,1392
15.316249899999999,1687
15.3187499,1961
15.3212499,1965
15.3237499,1706
15.3262499,1422
15.3287499,1330
15.3312499,1493
15.333749899999999,1819
15.3362499,2035
15.3387499,1936
15.3412499,1633
15.3437499,1379
15.3462499,1359
15.3487499,1593
15.3512499,1915
15.3537499,2043
15.3562499,1853
15.3587499,1548
15.361249899999999,1371
15.3637499,1455
15.3662499,1753
15.3687499,2030
15.3712499,2028
15.3737499,1761
15.3762499,1475
15.378749899999999,1405
15.3812499,1593
15.3837499,1940
15.3862499,2168
15.3887499,2073
15.3912499,1770
15.3937499,1521
15.396249899999999,1504
15.3987499,1737
15.4012499,2064
15.4037499,2199
15.4062499,2017
15.4087499,1701
15.4112499,1513
15.4137499,1577
15.4162499,1861
15.4187499,2138
15.4212499,2152
15.4237499,1894
15.4262499,1601
15.4287499,1493
15.4312499,1646
15.4337499,1964
15.4362499,2173
15.4387499,2056
15.441249899999999,1719
15.4437499,1437
15.4462499,1409
15.4487499,1643
15.4512499,1956
15.4537499,2059
15.4562499,1849
15.458749899999999,1524
15.4612499,1321
15.4637499,1377
15.4662499,1656
15.4687499,1933
15.4712499,1940
15.4737499,1666
15.4762499,1358
15.4787499,1242
15.4812499,1392
15.4837499,1712
15.4862499,1936
15.4887499,1846
15.4912499,1543
15.4937499,1284
15.4962499,1261
15.4987499,1492
15.5012499,1811
15.503749899999999,1943
15.5062499,1753
15.5087499,1437
15.5112499,1248
15.5137499,1314
15.5162499,1604
15.5187499,1890
15.521249899999999,1906
15.5237499,1645
15.5262499,1347
15.5287499,1240
15.5312499,1397
15.5337499,1720
15.5362499,1935
15.5387499,1828
15.5412499,1516
15.5437499,1271
15.5462499,1272
15.5487499,1524
15.5512499,1857
15.5537499,1988
15.5562499,1795
15.5587499,1471
15.5612499,1266
15.5637499,1321
15.566249899999999,1606
15.5687499,1898
15.5712499,1920
15.5737499,1661
15.5762499,1356
15.5787499,1243
15.5812499,1397
15.583749899999999,1720
15.5862499,1949
15.5887499,1864
15.5912499,1564
15.5937499,1308
15.5962499,1285
15.5987499,1516
15.6012499,1838
15.6037499,1970
15.6062499,1782
15.6087499,1463
15.6112499,1260
15.6137499,1313
15.6162499,1596
15.6187499,1891
15.6212499,1925
15.6237499,1685
15.6262499,1390
15.628749899999999,1274
15.6312499,1421
15.6337499,1740
15.6362499,1964
15.6387499,1870
15.6412499,1556
15.6437499,1290
15.646249899999999,1274
15.6487499,1514
15.6512499,1854
15.6537499,2001
15.6562499,1814
15.6587499,1484
15.6612499,1261
15.6637499,1314
15.6662499,1614
15.6687499,1920
15.6712499,1954
15.6737499,1693
15.6762499,1384
15.6787499,1260
15.6812499,1405
15.6837499,1725
15.6862499,1957
15.6887499,1877
15.691249899999999,1577
15.6937499,1322
15.6962499,1295
15.6987499,1519
15.7012499,1846
15.7037499,2002
15.7062499,1835
15.708749899999999,1524
15.7112499,1324
15.7137499,1380
15.7162499,1662
15.7187499,1956
15.7212499,1990
15.7237499,1732
15.7262499,1426
15.7287499,1310
15.7312499,1459
15.7337499,1783
15.7362499,2017
15.7387499,1944
15.7412499,1658
15.7437499,1408
15.7462499,1395
15.7487499,1630
15.7512499,1936
15.753749899999999,2036
15.7562499,1851
15.7587499,1525
15.7612499,1321
15.7637499,1376
15.7662499,1651
15.7687499,1933
15.771249899999999,1956
15.7737499,1696
15.7762499,1390
15.7787499,1268
15.7812499,1405
15.7837499,1722
15.7862499,1961
15.7887499,1886
15.7912499,1585
15.7937499,1313
15.7962499,1277
15.7987499,1504
15.8012499,1835
15.8037499,1981
15.8062499,1796
15.8087499,1471
15.8112499,1272
15.8137499,1327
15.816249899999999,1609
15.8187499,1902
15.8212499,1943
15.8237499,1698
15.8262499,1392
15.8287499,1253
15.8312499,1385
15.833749899999999,1727
15.8362499,2007
15.8387499,2009
15.8412499,1811
15.8437499,1674
15.8462499,1795
15.8487499,2191
15.8512499,2687
15.8537499,2969
15.8562499,2860
15.8587499,2486
15.8612499,2122
15.8637499,1961
15.8662499,2015
15.8687499,2077
15.8712499,1877
15.8737499,1446
15.8762499,1044
15.878749899999999,895
15.8812499,1061
15.8837499,1443
15.8862499,1754
15.8887499,1741
15.8912499,1477
15.8937499,1219
15.896249899999999,1189
15.8987499,1413
15.9012499,1753
15.9037499,1935
15.9062499,1793
15.9087499,1490
15.9112499,1287
15.9137499,1332
15.9162499,1608
15.9187499,1902
15.9212499,1944
15.9237499,1693
15.9262499,1382
15.9287499,1253
15.9312499,1384
15.9337499,1696
15.9362499,1933
15.9387499,1883
15.941249899999999,1606
15.9437499,1343
15.9462499,1308
15.9487499,1521
15.9512499,1840
15.9537499,1993
15.9562499,1832
15.958749899999999,1519
15.9612499,1308
15.9637499,1353
15.9662499,1629
15.9687499,1925
15.9712499,1969
15.9737499,1716
15.9762499,1406
15.9787499,1285
15.9812499,1435
15.9837499,1770
15.9862499,2020
15.9887499,1952
15.9912499,1646
15.9937499,1366
15.9962499,1322
15.9987499,1535
16.0012499,1861
16.003749900000003,2014
16.0062499,1853
16.0087499,1545
16.011249900000003,1337
16.0137499,1385
16.016249900000002,1662
16.018749900000003,1970
16.0212499,2030
16.023749900000002,1788
16.0262499,1480
16.0287499,1342
16.031249900000002,1475
16.0337499,1806
16.0362499,2060
16.038749900000003,2007
16.0412499,1714
16.0437499,1445
16.046249900000003,1401
16.0487499,1625
16.051249900000002,1972
16.053749900000003,2149
16.0562499,1999
16.058749900000002,1685
16.0612499,1472
16.0637499,1511
16.066249900000003,1783
16.0687499,2093
16.0712499,2152
16.073749900000003,1917
16.0762499,1630
16.078749900000002,1509
16.081249900000003,1643
16.0837499,1961
16.086249900000002,2199
16.0887499,2133
16.0912499,1828
16.093749900000002,1556
16.0962499,1509
16.0987499,1719
16.101249900000003,2056
16.1037499,2225
16.1062499,2064
16.108749900000003,1738
16.1112499,1506
16.113749900000002,1516
16.116249900000003,1764
16.1187499,2056
16.121249900000002,2097
16.1237499,1844
16.1262499,1524
16.128749900000003,1366
16.1312499,1475
16.1337499,1764
16.136249900000003,1993
16.1387499,1927
16.141249900000002,1625
16.143749900000003,1343
16.1462499,1274
16.148749900000002,1456
16.1512499,1764
16.1537499,1930
16.156249900000002,1785
16.1587499,1477
16.1612499,1264
16.163749900000003,1305
16.1662499,1577
16.1687499,1872
16.171249900000003,1927
16.1737499,1695
16.176249900000002,1392
16.178749900000003,1253
16.1812499,1353
16.183749900000002,1648
16.1862499,1883
16.1887499,1836
16.191249900000003,1554
16.1937499,1284
16.1962499,1229
16.198749900000003,1429
16.2012499,1761
16.203749900000002,1938
16.206249900000003,1788
16.2087499,1466
16.211249900000002,1231
16.2137499,1258
16.2162499,1533
16.218749900000002,1848
16.2212499,1922
16.2237499,1690
16.226249900000003,1384
16.2287499,1237
16.2312499,1347
16.233749900000003,1658
16.2362499,1907
16.238749900000002,1859
16.241249900000003,1571
16.2437499,1289
16.246249900000002,1227
16.2487499,1451
16.2512499,1775
16.253749900000003,1928
16.2562499,1762
16.2587499,1474
16.261249900000003,1253
16.2637499,1285
16.266249900000002,1556
16.268749900000003,1867
16.2712499,1935
16.273749900000002,1698
16.2762499,1380
16.2787499,1232
16.281249900000002,1350
16.2837499,1661
16.2862499,1911
16.288749900000003,1861
16.2912499,1572
16.2937499,1292
16.296249900000003,1237
16.2987499,1442
16.301249900000002,1766
16.303749900000003,1930
16.3062499,1774
16.308749900000002,1458
16.3112499,1232
16.3137499,1258
16.316249900000003,1525
16.3187499,1830
16.3212499,1894
16.323749900000003,1669
16.3262499,1374
16.328749900000002,1240
16.331249900000003,1359
16.3337499,1669
16.336249900000002,1917
16.3387499,1869
16.3412499,1577
16.343749900000002,1290
16.3462499,1226
16.3487499,1417
16.351249900000003,1738
16.3537499,1919
16.3562499,1780
16.358749900000003,1482
16.3612499,1263
16.363749900000002,1289
16.366249900000003,1553
16.3687499,1857
16.371249900000002,1933
16.3737499,1708
16.3762499,1400
16.378749900000003,1252
16.3812499,1371
16.3837499,1690
16.386249900000003,1952
16.3887499,1914
16.391249900000002,1625
16.393749900000003,1342
16.3962499,1282
16.398749900000002,1484
16.4012499,1819
16.4037499,2012
16.406249900000002,1883
16.4087499,1577
16.4112499,1350
16.413749900000003,1366
16.4162499,1616
16.4187499,1902
16.421249900000003,1956
16.4237499,1712
16.426249900000002,1390
16.428749900000003,1231
16.4312499,1335
16.433749900000002,1641
16.4362499,1898
16.4387499,1861
16.441249900000003,1577
16.4437499,1289
16.4462499,1218
16.448749900000003,1409
16.4512499,1743
16.453749900000002,1936
16.456249900000003,1799
16.4587499,1479
16.461249900000002,1242
16.4637499,1256
16.4662499,1521
16.468749900000002,1841
16.4712499,1932
16.4737499,1708
16.476249900000003,1392
16.4787499,1231
16.4812499,1332
16.483749900000003,1638
16.4862499,1891
16.488749900000002,1857
16.491249900000003,1571
16.4937499,1285
16.496249900000002,1231
16.4987499,1471
16.5012499,1883
16.503749900000003,2181
16.5062499,2197
16.5087499,2062
16.511249900000003,2017
16.5137499,2210
16.516249900000002,2595
16.518749900000003,2942
16.5212499,2958
16.523749900000002,2576
16.5262499,2038
16.5287499,1614
16.531249900000002,1437
16.5337499,1493
16.5362499,1604
16.538749900000003,1527
16.5412499,1266
16.5437499,1040
16.546249900000003,1028
16.5487499,1269
16.551249900000002,1637
16.553749900000003,1844
16.5562499,1727
16.558749900000002,1426
16.5612499,1214
16.5637499,1243
16.566249900000003,1509
16.5687499,1820
16.5712499,1907
16.573749900000003,1690
16.5762499,1380
16.578749900000002,1218
16.581249900000003,1318
16.5837499,1630
16.586249900000002,1901
16.5887499,1880
16.5912499,1601
16.593749900000002,1306
16.5962499,1221
16.5987499,1401
16.601249900000003,1738
16.6037499,1946
16.6062499,1835
16.608749900000003,1538
16.6112499,1308
16.613749900000002,1318
16.616249900000003,1574
16.6187499,1890
16.621249900000002,1977
16.6237499,1749
16.6262499,1424
16.628749900000003,1258
16.6312499,1364
16.6337499,1690
16.636249900000003,1978
16.6387499,1969
16.641249900000002,1683
16.643749900000003,1385
16.6462499,1292
16.648749900000002,1467
16.6512499,1791
16.6537499,1991
16.656249900000002,1873
16.6587499,1569
16.6612499,1334
16.663749900000003,1339
16.6662499,1585
16.6687499,1898
16.671249900000003,1996
16.6737499,1793
16.676249900000002,1490
16.678749900000003,1334
16.6812499,1435
16.683749900000002,1741
16.6862499,2019
16.6887499,2007
16.691249900000003,1727
16.6937499,1438
16.6962499,1359
16.698749900000003,1548
16.7012499,1886
16.703749900000002,2094
16.706249900000003,1973
16.7087499,1664
16.711249900000002,1426
16.7137499,1445
16.7162499,1716
16.718749900000002,2051
16.7212499,2164
16.7237499,1959
16.726249900000003,1648
16.7287499,1482
16.7312499,1577
16.733749900000003,1890
16.7362499,2170
16.738749900000002,2155
16.741249900000003,1872
16.7437499,1577
16.746249900000002,1503
16.7487499,1688
16.7512499,2023
16.753749900000003,2222
16.7562499,2099
16.7587499,1766
16.761249900000003,1550
16.7637499,1574
16.766249900000002,1827
16.768749900000003,2102
16.7712499,2176
16.773749900000002,1938
16.7762499,1590
16.7787499,1395
16.781249900000002,1477
16.7837499,1782
16.7862499,2067
16.788749900000003,2052
16.7912499,1759
16.7937499,1450
16.796249900000003,1340
16.7987499,1495
16.801249900000002,1803
16.803749900000003,1993
16.8062499,1865
16.808749900000002,1545
16.8112499,1293
16.8137499,1281
16.816249900000003,1514
16.8187499,1836
16.8212499,1952
16.823749900000003,1746
16.8262499,1424
16.828749900000002,1237
16.831249900000003,1326
16.8337499,1641
16.836249900000002,1927
16.8387499,1925
16.8412499,1650
16.843749900000002,1351
16.8462499,1255
16.8487499,1421
16.851249900000003,1743
16.8537499,1948
16.8562499,1833
16.858749900000003,1525
16.8612499,1281
16.863749900000002,1285
16.866249900000003,1533
16.8687499,1849
16.871249900000002,1965
16.8737499,1769
16.8762499,1458
16.878749900000003,1281
16.8812499,1363
16.8837499,1662
16.886249900000003,1938
16.8887499,1935
16.891249900000002,1659
16.893749900000003,1368
16.8962499,1277
16.898749900000002,1446
16.9012499,1766
16.9037499,1962
16.906249900000002,1846
16.9087499,1553
16.9112499,1313
16.913749900000003,1318
16.9162499,1569
16.9187499,1894
16.921249900000003,2007
16.9237499,1799
16.926249900000002,1475
16.928749900000003,1287
16.9312499,1364
16.933749900000002,1661
16.9362499,1941
16.9387499,1936
16.941249900000003,1659
16.9437499,1361
16.9462499,1264
16.948749900000003,1426
16.9512499,1743
16.953749900000002,1946
16.956249900000003,1841
16.9587499,1550
16.961249900000002,1314
16.9637499,1310
16.9662499,1554
16.968749900000002,1875
16.9712499,1991
16.9737499,1788
16.976249900000003,1469
16.9787499,1287
16.9812499,1366
16.983749900000003,1662
16.9862499,1938
16.988749900000002,1943
16.991249900000003,1675
16.9937499,1377
16.996249900000002,1269
16.9987499,1427
17.0012499,1759
17.003749900000003,1985
17.0062499,1896
17.0087499,1596
17.011249900000003,1342
17.0137499,1327
17.016249900000002,1564
17.018749900000003,1886
17.0212499,2010
17.023749900000002,1822
17.0262499,1511
17.0287499,1321
17.031249900000002,1387
17.0337499,1677
17.0362499,1965
17.038749900000003,1985
17.0412499,1733
17.0437499,1451
17.046249900000003,1353
17.0487499,1516
