# Time (seconds),Voltage
0.0012499,1237
0.0037499,1147
0.0062499,1379
0.0087499,1788
0.0112499,2062
0.0137499,2010
0.016249899999999998,1777
0.0187499,1651
0.021249900000000002,1838
0.023749899999999997,2315
0.0262499,2824
0.028749900000000002,3035
0.031249899999999997,2800
0.0337499,2305
0.0362499,1909
0.0387499,1801
0.0412499,1917
0.0437499,1986
0.0462499,1754
0.0487499,1281
0.0512499,883
0.053749899999999996,807
0.0562499,1079
0.0587499,1530
0.061249899999999996,1809
0.0637499,1711
0.0662499,1388
0.0687499,1142
0.0712499,1161
0.0737499,1464
0.0762499,1843
0.0787499,1954
0.0812499,1712
0.0837499,1361
0.0862499,1171
0.0887499,1287
0.0912499,1637
0.0937499,1930
0.0962499,1872
0.0987499,1571
0.1012499,1235
0.1037499,1163
0.1062499,1405
0.1087499,1785
0.1112499,2001
0.1137499,1849
0.1162499,1484
0.1187499,1208
0.1212499,1224
0.1237499,1521
0.1262499,1883
0.1287499,1993
0.1312499,1741
0.1337499,1377
0.1362499,1198
0.1387499,1321
0.1412499,1677
0.1437499,1991
0.1462499,1965
0.1487499,1648
0.1512499,1319
0.1537499,1226
0.1562499,1443
0.1587499,1811
0.1612499,2004
0.1637499,1843
0.1662499,1484
0.1687499,1240
0.1712499,1293
0.1737499,1617
0.17624990000000001,1977
0.1787499,2080
0.1812499,1828
0.1837499,1455
0.1862499,1260
0.1887499,1384
0.1912499,1740
0.1937499,2052
0.1962499,2035
0.1987499,1708
0.2012499,1379
0.2037499,1297
0.2062499,1511
0.20874990000000002,1893
0.2112499,2114
0.2137499,1965
0.2162499,1582
0.2187499,1334
0.2212499,1380
0.2237499,1701
0.2262499,2030
0.2287499,2128
0.2312499,1894
0.2337499,1548
0.2362499,1364
0.23874990000000001,1495
0.2412499,1861
0.2437499,2164
0.2462499,2135
0.2487499,1801
0.2512499,1450
0.25374990000000003,1384
0.25624990000000003,1633
0.25874990000000003,2025
0.26124990000000003,2251
0.26374990000000004,2106
0.26624990000000004,1738
0.26874990000000004,1458
0.27124990000000004,1466
0.27374990000000005,1743
0.27624990000000005,2089
0.27874990000000005,2188
0.28124990000000005,1941
0.28374990000000005,1585
0.28624990000000006,1387
0.28874990000000006,1485
0.2912499,1824
0.2937499,2117
0.2962499,2072
0.2987499,1738
0.3012499,1390
0.3037499,1277
0.3062499,1479
0.3087499,1844
0.3112499,2048
0.3137499,1888
0.31624990000000003,1516
0.31874990000000003,1232
0.32124990000000003,1252
0.32374990000000003,1553
0.32624990000000004,1901
0.32874990000000004,1996
0.33124990000000004,1735
0.33374990000000004,1369
0.33624990000000005,1189
0.33874990000000005,1310
0.34124990000000005,1648
0.34374990000000005,1936
0.34624990000000005,1899
0.34874990000000006,1571
0.35124990000000006,1242
0.3537499,1179
0.3562499,1424
0.3587499,1819
0.3612499,2025
0.3637499,1862
0.3662499,1513
0.3687499,1239
0.3712499,1237
0.3737499,1525
0.3762499,1872
0.37874990000000003,1967
0.38124990000000003,1724
0.38374990000000003,1364
0.38624990000000003,1174
0.38874990000000004,1297
0.39124990000000004,1648
0.39374990000000004,1941
0.39624990000000004,1915
0.39874990000000005,1590
0.40124990000000005,1253
0.40374990000000005,1187
0.40624990000000005,1405
0.40874990000000005,1774
0.41124990000000006,1993
0.41374990000000006,1848
0.41624990000000006,1485
0.4187499,1214
0.4212499,1229
0.4237499,1525
0.4262499,1885
0.4287499,1981
0.4312499,1724
0.4337499,1368
0.4362499,1184
0.4387499,1305
0.44124990000000003,1662
0.44374990000000003,1957
0.44624990000000003,1919
0.44874990000000003,1603
0.45124990000000004,1272
0.45374990000000004,1185
0.45624990000000004,1413
0.45874990000000004,1782
0.46124990000000005,1980
0.46374990000000005,1815
0.46624990000000005,1453
0.46874990000000005,1184
0.47124990000000005,1216
0.47374990000000006,1527
0.47624990000000006,1891
0.47874990000000006,2002
0.4812499,1748
0.4837499,1382
0.4862499,1198
0.4887499,1326
0.4912499,1670
0.4937499,1969
0.4962499,1925
0.4987499,1590
0.5012499,1252
0.5037499000000001,1160
0.5062499,1379
0.5087499000000001,1778
0.5112499,2009
0.5137499,1862
0.5162499,1496
0.5187499,1214
0.5212499,1227
0.5237499,1533
0.5262499,1891
0.5287499,1985
0.5312499,1733
0.5337499,1366
0.5362499000000001,1182
0.5387499,1313
0.5412499000000001,1659
0.5437499,1948
0.5462499000000001,1923
0.5487499,1600
0.5512499000000001,1258
0.5537499,1187
0.5562499000000001,1416
0.5587499,1798
0.5612499000000001,2019
0.5637499,1864
0.5662499000000001,1503
0.5687499,1243
0.5712499000000001,1264
0.5737499,1564
0.5762499000000001,1927
0.5787499,2025
0.5812499,1778
0.5837499,1413
0.5862499,1211
0.5887499,1334
0.5912499,1696
0.5937499,2002
0.5962499,1980
0.5987499000000001,1670
0.6012499,1347
0.6037499000000001,1269
0.6062499,1498
0.6087499000000001,1869
0.6112499,2072
0.6137499000000001,1923
0.6162499,1566
0.6187499000000001,1303
0.6212499,1334
0.6237499000000001,1641
0.6262499,1991
0.6287499000000001,2068
0.6312499,1786
0.6337499000000001,1400
0.6362499,1218
0.6387499000000001,1343
0.6412499,1699
0.6437499,1994
0.6462499,1940
0.6487499,1596
0.6512499,1264
0.6537499,1184
0.6562499,1409
0.6587499,1795
0.6612499000000001,1999
0.6637499,1841
0.6662499000000001,1498
0.6687499,1226
0.6712499000000001,1242
0.6737499,1558
0.6762499000000001,1901
0.6787499,1986
0.6812499000000001,1735
0.6837499,1340
0.6862499000000001,1173
0.6887499,1335
0.6912499000000001,1703
0.6937499,1975
0.6962499000000001,1951
0.6987499,1625
0.7012499000000001,1293
0.7037499,1245
0.7062499,1525
0.7087499,1991
0.7112499,2334
0.7137499,2338
0.7162499,2154
0.7187499,2068
0.7212499,2231
0.7237499000000001,2603
0.7262499,2918
0.7287499000000001,2860
0.7312499,2400
0.7337499000000001,1803
0.7362499,1359
0.7387499000000001,1231
0.7412499,1401
0.7437499000000001,1596
0.7462499,1551
0.7487499000000001,1277
0.7512499,1008
0.7537499000000001,992
0.7562499,1272
0.7587499000000001,1669
0.7612499,1894
0.7637499000000001,1761
0.7662499,1408
0.7687499000000001,1155
0.7712499,1195
0.7737499,1503
0.7762499,1862
0.7787499,1978
0.7812499,1725
0.7837499,1364
0.7862499000000001,1173
0.7887499,1285
0.7912499000000001,1646
0.7937499,1951
0.7962499000000001,1912
0.7987499,1588
0.8012499000000001,1263
0.8037499,1179
0.8062499000000001,1413
0.8087499,1798
0.8112499000000001,2004
0.8137499,1848
0.8162499000000001,1487
0.8187499,1198
0.8212499000000001,1226
0.8237499,1546
0.8262499000000001,1914
0.8287499,2012
0.8312499000000001,1759
0.8337499,1387
0.8362499,1200
0.8387499,1327
0.8412499,1680
0.8437499,1988
0.8462499,1965
0.8487499000000001,1640
0.8512499,1311
0.8537499000000001,1242
0.8562499,1461
0.8587499000000001,1835
0.8612499,2048
0.8637499000000001,1886
0.8662499,1519
0.8687499000000001,1252
0.8712499,1271
0.8737499000000001,1585
0.8762499,1943
0.8787499000000001,2030
0.8812499,1777
0.8837499000000001,1434
0.8862499,1264
0.8887499000000001,1406
0.8912499,1772
0.8937499000000001,2067
0.8962499,2030
0.8987499,1709
0.9012499,1377
0.9037499,1306
0.9062499,1537
0.9087499,1907
0.9112499000000001,2122
0.9137499,1975
0.9162499000000001,1622
0.9187499,1361
0.9212499000000001,1392
0.9237499,1695
0.9262499000000001,2054
0.9287499,2152
0.9312499000000001,1899
0.9337499,1550
0.9362499000000001,1380
0.9387499,1509
0.9412499000000001,1875
0.9437499,2184
0.9462499000000001,2151
0.9487499,1824
0.9512499000000001,1492
0.9537499,1397
0.9562499000000001,1625
0.9587499,2014
0.9612499,2223
0.9637499,2072
0.9662499,1703
0.9687499,1416
0.9712499,1437
0.9737499000000001,1743
0.9762499,2093
0.9787499000000001,2184
0.9812499,1912
0.9837499000000001,1521
0.9862499,1335
0.9887499000000001,1467
0.9912499,1806
0.9937499000000001,2078
0.9962499,2023
0.9987499000000001,1685
1.0012499,1359
1.0037498999999999,1281
1.0062499,1504
1.0087499,1878
1.0112499,2080
1.0137498999999999,1906
1.0162499,1537
1.0187499,1258
1.0212499,1271
1.0237498999999999,1569
1.0262498999999998,1911
1.0287499,1977
1.0312499,1709
1.0337498999999999,1348
1.0362498999999998,1168
1.0387499,1306
1.0412499,1675
1.0437499,1969
1.0462498999999998,1923
1.0487499,1593
1.0512499,1258
1.0537499,1182
1.0562498999999999,1401
1.0587499,1769
1.0612499,1983
1.0637499,1838
1.0662498999999999,1480
1.0687499,1216
1.0712499,1237
1.0737499,1535
1.0762498999999999,1894
1.0787499,1986
1.0812499,1733
1.0837499,1385
1.0862498999999999,1213
1.0887499,1348
1.0912499,1711
1.0937499,2004
1.0962498999999999,1956
1.0987498999999998,1632
1.1012499,1300
1.1037499,1216
1.1062499,1440
1.1087498999999998,1811
1.1112499,2006
1.1137499,1864
1.1162499,1529
1.1187498999999999,1255
1.1212499,1274
1.1237499,1572
1.1262499,1912
1.1287498999999999,1999
1.1312499,1743
1.1337499,1384
1.1362499,1216
1.1387498999999999,1350
1.1412499,1709
1.1437499,2014
1.1462499,1973
1.1487498999999999,1608
1.1512499,1287
1.1537499,1227
1.1562499,1435
1.1587498999999999,1809
1.1612498999999998,2031
1.1637499,1890
1.1662499,1538
1.1687499,1274
1.1712498999999998,1297
1.1737499,1601
1.1762499,1948
1.1787499,2020
1.1812498999999999,1757
1.1837499,1392
1.1862499,1218
1.1887499,1359
1.1912498999999999,1719
1.1937499,2012
1.1962499,1981
1.1987499,1661
1.2012498999999999,1343
1.2037499,1274
1.2062499,1492
1.2087499,1854
1.2112498999999999,2054
1.2137499,1888
1.2162499,1516
1.2187499,1252
1.2212498999999999,1281
1.2237498999999998,1585
1.2262499,1951
1.2287499,2046
1.2312499,1786
1.2337498999999998,1421
1.2362499,1216
1.2387499,1332
1.2412499,1708
1.2437498999999999,2025
1.2462499,2007
1.2487499,1704
1.2512499,1376
1.2537498999999999,1282
1.2562499,1501
1.2587499,1861
1.2612499,2054
1.2637498999999999,1904
1.2662499,1550
1.2687499,1284
1.2712499,1319
1.2737498999999999,1625
1.2762499,1985
1.2787499,2081
1.2812499,1812
1.2837498999999999,1450
1.2862498999999998,1290
1.2887499,1434
1.2912499,1799
1.2937499,2102
1.2962498999999998,2054
1.2987499,1712
1.3012499,1388
1.3037499,1311
1.3062498999999999,1535
1.3087499,1922
1.3112499,2131
1.3137499,1980
1.3162498999999999,1630
1.3187499,1364
1.3212499,1388
1.3237499,1708
1.3262498999999999,2073
1.3287499,2168
1.3312499,1917
1.3337499,1540
1.3362498999999999,1340
1.3387499,1456
1.3412499,1799
1.3437499,2101
1.3462498999999999,2075
1.3487498999999998,1735
1.3512499,1390
1.3537499,1303
1.3562499,1509
1.3587498999999998,1870
1.3612499,2072
1.3637499,1902
1.3662499,1533
1.3687498999999999,1276
1.3712499,1310
1.3737499,1621
1.3762499,1988
1.3787498999999999,2078
1.3812499,1824
1.3837499,1467
1.3862499,1277
1.3887498999999999,1405
1.3912499,1762
1.3937499,2043
1.3962499,1988
1.3987498999999999,1651
1.4012499,1316
1.4037499,1247
1.4062499,1490
1.4087498999999999,1865
1.4112498999999998,2083
1.4137499,1957
1.4162499,1650
1.4187499,1475
1.4212498999999998,1638
1.4237499,2101
1.4262499,2629
1.4287499,2897
1.4312498999999999,2787
1.4337499,2513
1.4362499,2313
1.4387499,2297
1.4412498999999999,2447
1.4437499,2510
1.4462499,2220
1.4487499,1641
1.4512498999999999,1108
1.4537499,902
1.4562499,1079
1.4587499,1485
1.4612498999999999,1748
1.4637499,1664
1.4662499,1380
1.4687499,1166
1.4712498999999999,1229
1.4737498999999998,1572
1.4762499,1936
1.4787499,2027
1.4812499,1772
1.4837498999999998,1401
1.4862499,1219
1.4887499,1353
1.4912499,1714
1.4937498999999999,2019
1.4962499,1994
1.4987499,1664
1.5012499,1335
1.5037498999999999,1260
1.5062499,1479
1.5087499,1856
1.5112499,2078
1.5137498999999999,1922
1.5162499,1559
1.5187499,1298
1.5212499,1318
1.5237498999999999,1627
1.5262499,1998
1.5287499,2083
1.5312499,1819
1.5337498999999999,1463
1.5362499,1279
1.5387499,1414
1.5412499,1796
1.5437499,2101
1.5462498999999998,2064
1.5487499,1743
1.5512499,1405
1.5537499,1316
1.5562498999999999,1543
1.5587499,1917
1.5612499,2126
1.5637499,1970
1.5662498999999999,1600
1.5687499,1332
1.5712499,1368
1.5737499,1677
1.5762498999999999,2056
1.5787499,2146
1.5812499,1867
1.5837499,1492
1.5862498999999999,1308
1.5887499,1432
1.5912499,1803
1.5937499,2122
1.5962498999999999,2088
1.5987499,1772
1.6012499,1456
1.6037499,1377
1.6062499,1604
1.6087498999999998,1986
1.6112499,2193
1.6137499,2015
1.6162499,1654
1.6187498999999999,1416
1.6212499,1450
1.6237499,1759
1.6262499,2114
1.6287498999999999,2212
1.6312499,1964
1.6337499,1604
1.6362499,1434
1.6387498999999999,1575
1.6412499,1933
1.6437499,2238
1.6462499,2207
1.6487498999999999,1877
1.6512499,1558
1.6537499,1485
1.6562499,1704
1.6587498999999999,2107
1.6612499,2328
1.6637499,2165
1.6662499,1804
1.6687499,1540
1.6712498999999998,1553
1.6737499,1853
1.6762499,2205
1.6787499,2288
1.6812498999999999,2030
1.6837499,1662
1.6862499,1469
1.6887499,1592
1.6912498999999999,1946
1.6937499,2230
1.6962499,2178
1.6987499,1832
1.7012498999999999,1484
1.7037499,1398
1.7062499,1622
1.7087499,1993
1.7112498999999999,2184
1.7137499,2007
1.7162499,1627
1.7187499,1345
1.7212498999999999,1348
1.7237499,1625
1.7262499,1973
1.7287499,2065
1.7312499,1807
1.7337498999999998,1450
1.7362499,1268
1.7387499,1395
1.7412499,1756
1.7437498999999999,2057
1.7462499,2017
1.7487499,1693
1.7512499,1366
1.7537498999999999,1277
1.7562499,1496
1.7587499,1865
1.7612499,2065
1.7637498999999999,1917
1.7662499,1559
1.7687499,1290
1.7712499,1324
1.7737498999999999,1638
1.7762499,1994
1.7787499,2075
1.7812499,1804
1.7837498999999999,1440
1.7862499,1279
1.7887499,1421
1.7912499,1793
1.7937499,2086
1.7962498999999998,2022
1.7987499,1669
1.8012499,1335
1.8037499,1264
1.8062498999999999,1498
1.8087499,1886
1.8112499,2093
1.8137499,1930
1.8162498999999999,1571
1.8187499,1306
1.8212499,1330
1.8237499,1641
1.8262498999999999,1993
1.8287499,2067
1.8312499,1809
1.8337499,1450
1.8362498999999999,1266
1.8387499,1405
1.8412499,1764
1.8437499,2054
1.8462498999999999,2014
1.8487499,1691
1.8512499,1374
1.8537499,1305
1.8562499,1525
1.8587498999999998,1902
1.8612499,2110
1.8637499,1943
1.8662499,1571
1.8687498999999999,1303
1.8712499,1330
1.8737499,1638
1.8762499,2004
1.8787498999999999,2085
1.8812499,1807
1.8837499,1437
1.8862499,1261
1.8887498999999999,1406
1.8912499,1785
1.8937499,2086
1.8962499,2039
1.8987498999999999,1703
1.9012499,1363
1.9037499,1281
1.9062499,1519
1.9087498999999999,1896
1.9112499,2093
1.9137499,1930
1.9162499,1564
1.9187499,1300
1.9212498999999998,1337
1.9237499,1641
1.9262499,1985
1.9287499,2068
1.9312498999999999,1809
1.9337499,1451
1.9362499,1282
1.9387499,1427
1.9412498999999999,1791
1.9437499,2089
1.9462499,2030
1.9487499,1683
1.9512498999999999,1358
1.9537499,1290
1.9562499,1533
1.9587499,1920
1.9612498999999999,2120
1.9637499,1952
1.9662499,1595
1.9687499,1321
1.9712498999999999,1356
1.9737499,1687
1.9762499,2052
1.9787499,2136
1.9812499,1872
1.9837499,1500
1.9862499,1319
1.9887499,1459
1.9912499,1822
1.9937498999999999,2125
1.9962499,2099
1.9987499,1780
2.0012499,1456
2.0037499,1388
2.0062499,1624
2.0087498999999998,1994
2.0112499,2191
2.0137499,2009
2.0162499,1632
2.0187499,1359
2.0212499,1376
2.0237499,1679
2.0262499,2038
2.0287498999999998,2112
2.0312499,1836
2.0337499,1475
2.0362499,1303
2.0387499,1435
2.0412499,1799
2.0437499,2086
2.0462499,2039
2.0487499,1717
2.0512498999999997,1379
2.0537499,1303
2.0562499,1617
2.0587499,1930
2.0612499,2099
2.0637499,1919
2.0662499,1559
2.0687499,1318
2.0712498999999998,1380
2.0737499,1691
2.0762499,2028
2.0787499,2091
2.0812499,1822
2.0837499,1455
2.0862499,1282
2.0887499,1421
2.0912498999999998,1799
2.0937499,2144
2.0962499,2172
2.0987499,1954
2.1012499,1783
2.1037499,1869
2.1062499,2257
2.1087499,2794
2.1112499,3106
2.1137498999999997,2990
2.1162499,2578
2.1187499,2149
2.1212499,1948
2.1237499,2017
2.1262499,2114
2.1287499,1948
2.1312499,1532
2.1337498999999998,1100
2.1362499,916
2.1387499,1095
2.1412499,1511
2.1437499,1870
2.1462499,1886
2.1487499,1585
2.1512499,1277
2.1537498999999998,1229
2.1562499,1475
2.1587499,1865
2.1612499,2078
2.1637499,1911
2.1662499,1551
2.1687499,1298
2.1712499,1321
2.1737499,1624
2.1762499,1983
2.1787499,2081
2.1812499,1836
2.1837499,1493
2.1862499,1308
2.1887499,1430
2.1912499,1790
2.1937499,2075
2.1962498999999998,2035
2.1987499,1714
2.2012499,1390
2.2037499,1330
2.2062499,1574
2.2087499,1940
2.2112499,2136
2.2137499,1980
2.2162498999999998,1609
2.2187499,1359
2.2212499,1409
2.2237499,1712
2.2262499,2052
2.2287499,2110
2.2312499,1824
2.2337499,1467
2.2362499,1319
2.2387499,1472
2.2412499,1838
2.2437499,2130
2.2462499,2070
2.2487499,1737
2.2512499,1426
2.2537499,1361
2.2562499,1604
2.2587498999999998,1991
2.2612499,2191
2.2637499,2031
2.2662499,1661
2.2687499,1384
2.2712499,1421
2.2737499,1733
2.2762499,2085
2.2787498999999998,2168
2.2812499,1927
2.2837499,1582
2.2862499,1417
2.2887499,1559
2.2912499,1914
2.2937499,2204
2.2962499,2151
2.2987499,1806
2.3012499,1480
2.3037499,1429
2.3062499,1679
2.3087499,2080
2.3112499,2309
2.3137499,2159
2.3162499,1801
2.3187499,1529
2.3212498999999998,1533
2.3237499,1830
2.3262499,2181
2.3287499,2260
2.3312499,2007
2.3337499,1664
2.3362499,1509
2.3387499,1664
2.3412498999999998,2038
2.3437499,2318
2.3462499,2257
2.3487499,1917
2.3512499,1580
2.3537499,1496
2.3562499,1741
2.3587499,2135
2.3612499,2333
2.3637499,2136
2.3662499,1746
2.3687499,1484
2.3712499,1508
2.3737499,1799
2.3762499,2138
2.3787499,2205
2.3812499,1927
2.3837498999999998,1563
2.3862499,1385
2.3887499,1498
2.3912499,1844
2.3937499,2122
2.3962499,2057
2.3987499,1712
2.4012499,1382
2.4037498999999998,1306
2.4062499,1542
2.4087499,1909
2.4112499,2093
2.4137499,1912
2.4162499,1535
2.4187499,1260
2.4212499,1306
2.4237499,1635
2.4262499,1986
2.4287499,2065
2.4312499,1809
2.4337499,1451
2.4362499,1287
2.4387499,1419
2.4412499,1762
2.4437499,2041
2.4462498999999998,1978
2.4487499,1638
2.4512499,1319
2.4537499,1261
2.4562499,1496
2.4587499,1878
2.4612499,2073
2.4637499,1893
2.4662498999999998,1529
2.4687499,1272
2.4712499,1310
2.4737499,1641
2.4762499,2012
2.4787499,2073
2.4812499,1795
2.4837499,1427
2.4862499,1256
2.4887499,1400
2.4912499,1754
2.4937499,2030
2.4962499,1980
2.4987499,1654
2.5012499,1337
2.5037499,1281
2.5062499,1514
2.5087498999999998,1886
2.5112499,2088
2.5137499,1925
2.5162499,1564
2.5187499,1314
2.5212499,1348
2.5237499,1641
2.5262499,2004
2.5287498999999998,2035
2.5312499,1738
2.5337499,1413
2.5362499,1256
2.5387499,1405
2.5412499,1775
2.5437499,2062
2.5462499,2007
2.5487499,1688
2.5512499,1368
2.5537499,1285
2.5562499,1514
2.5587499,1882
2.5612499,2067
2.5637499,1901
2.5662499,1540
2.5687499,1281
2.5712498999999998,1321
2.5737499,1638
2.5762499,1986
2.5787499,2060
2.5812499,1785
2.5837499,1409
2.5862499,1247
2.5887499,1400
2.5912498999999998,1775
2.5937499,2078
2.5962499,2027
2.5987499,1690
2.6012499,1369
2.6037499,1301
2.6062499,1537
2.6087499,1919
2.6112499,2109
2.6137499,1936
2.6162499,1582
2.6187499,1322
2.6212499,1359
2.6237499,1672
2.6262499,2017
2.6287499,2085
2.6312499,1822
2.6337498999999998,1475
2.6362499,1326
2.6387499,1492
2.6412499,1857
2.6437499,2130
2.6462499,2064
2.6487499,1728
2.6512499,1406
2.6537498999999998,1351
2.6562499,1595
2.6587499,1972
2.6612499,2178
2.6637499,2015
2.6662499,1650
2.6687499,1382
2.6712499,1397
2.6737499,1687
2.6762499,2030
2.6787499,2089
2.6812499,1812
2.6837499,1456
2.6862499,1279
2.6887499,1409
2.6912499,1769
2.6937499,2043
2.6962498999999998,1986
2.6987499,1675
2.7012499,1372
2.7037499,1313
2.7062499,1556
2.7087499,1911
2.7112499,2080
2.7137499,1902
2.7162498999999998,1542
2.7187499,1305
2.7212499,1363
2.7237499,1670
2.7262499,2010
2.7287499,2078
2.7312499,1786
2.7337499,1411
2.7362499,1245
2.7387499,1390
2.7412499,1766
2.7437499,2075
2.7462499,2046
2.7487499,1790
2.7512499,1590
2.7537499,1669
2.7562499,2068
2.7587498999999998,2624
2.7612499,2977
2.7637499,2921
2.7662499,2597
2.7687499,2270
2.7712499,2141
2.7737499,2238
2.7762499,2342
2.7787498999999998,2167
2.7812499,1667
2.7837499,1121
2.7862499,868
2.7887499,1029
2.7912499,1451
2.7937499,1804
2.7962499,1827
2.7987499,1548
2.8012499,1263
2.8037499,1223
2.8062499,1456
2.8087499,1820
2.8112499,2010
2.8137499,1833
2.8162499,1477
2.8187499,1240
2.8212498999999998,1284
2.8237499,1596
2.8262499,1948
2.8287499,2014
2.8312499,1748
2.8337499,1400
2.8362499,1243
2.8387499,1393
2.8412498999999998,1764
2.8437499,2038
2.8462499,1969
2.8487499,1632
2.8512499,1300
2.8537499,1242
2.8562499,1506
2.8587499,1899
2.8612499,2088
2.8637499,1906
2.8662499,1537
2.8687499,1287
2.8712499,1348
2.8737499,1669
2.8762499,2020
2.8787499,2085
2.8812499,1796
2.8837498999999998,1430
2.8862499,1277
2.8887499,1427
2.8912499,1795
2.8937499,2086
2.8962499,2014
2.8987499,1669
2.9012499,1348
2.9037498999999998,1285
2.9062499,1537
2.9087499,1917
2.9112499,2106
2.9137499,1946
2.9162499,1598
2.9187499,1343
2.9212499,1388
2.9237499,1704
2.9262499,2038
2.9287499,2093
2.9312499,1827
2.9337499,1474
2.9362499,1321
2.9387499,1487
2.9412499,1856
2.9437499,2146
2.9462498999999998,2106
2.9487499,1770
2.9512499,1448
2.9537499,1393
2.9562499,1630
2.9587499,2002
2.9612499,2194
2.9637499,2025
2.9662498999999998,1667
2.9687499,1426
2.9712499,1466
2.9737499,1782
2.9762499,2135
2.9787499,2204
2.9812499,1943
2.9837499,1579
2.9862499,1442
2.9887499,1612
2.9912499,1983
2.9937499,2230
2.9962499,2183
2.9987499,1851
3.0012499,1517
3.0037499,1453
3.0062499,1688
3.0087499,2046
3.0112499,2218
3.0137499,2033
3.0162499,1659
3.0187499,1411
3.0212499,1458
3.0237499,1756
3.0262499,2080
3.0287498999999998,2117
3.0312499,1825
3.0337499,1479
3.0362499,1334
3.0387499,1467
3.0412499,1799
3.0437499,2057
3.0462499,1973
3.0487499,1627
3.0512499,1298
3.0537499,1226
3.0562499,1466
3.0587499,1844
3.0612499,2030
3.0637499,1849
3.0662499,1485
3.0687499,1221
3.0712499,1268
3.0737499,1583
3.0762499,1917
3.0787499,1985
3.0812499,1720
3.0837499,1358
3.0862499,1197
3.0887499,1339
3.0912498999999998,1695
3.0937499,1990
3.0962499,1940
3.0987499,1604
3.1012499,1290
3.1037499,1240
3.1062499,1482
3.1087499,1846
3.1112499,2020
3.1137499,1824
3.1162499,1456
3.1187499,1208
3.1212499,1250
3.1237499,1572
3.1262499,1919
3.1287499,1978
3.1312499,1706
3.1337499,1353
3.1362499,1189
3.1387499,1339
3.1412499,1711
3.1437499,1990
3.1462499,1928
3.1487499,1604
3.1512499,1295
3.1537498999999998,1247
3.1562499,1492
3.1587499,1853
3.1612499,2027
3.1637499,1838
3.1662499,1464
3.1687499,1218
3.1712499,1274
3.1737499,1600
3.1762499,1941
3.1787499,1994
3.1812499,1704
3.1837499,1343
3.1862499,1192
3.1887499,1345
3.1912499,1717
3.1937499,1998
3.1962499,1923
3.1987499,1580
3.2012499,1258
3.2037499,1202
3.2062499,1463
3.2087499,1851
3.2112499,2035
3.2137499,1851
3.2162498999999998,1475
3.2187499,1208
3.2212499,1247
3.2237499,1563
3.2262499,1906
3.2287499,1977
3.2312499,1708
3.2337499,1356
3.2362499,1206
3.2387499,1359
3.2412499,1717
3.2437499,1994
3.2462499,1922
3.2487499,1577
3.2512499,1264
3.2537499,1210
3.2562499,1451
3.2587499,1825
3.2612499,2004
3.2637499,1827
3.2662499,1480
3.2687499,1243
3.2712499,1297
3.2737499,1622
3.2762499,1956
3.2787498999999998,1994
3.2812499,1725
3.2837499,1387
3.2862499,1258
3.2887499,1438
3.2912499,1795
3.2937499,2035
3.2962499,1943
3.2987499,1595
3.3012499,1284
3.3037499,1252
3.3062499,1517
3.3087499,1901
3.3112499,2089
3.3137499,1906
3.3162499,1538
3.3187499,1285
3.3212499,1327
3.3237499,1638
3.3262499,1967
3.3287499,2006
3.3312499,1712
3.3337499,1359
3.3362499,1202
3.3387499,1350
3.3412498999999998,1712
3.3437499,1975
3.3462499,1885
3.3487499,1540
3.3512499,1219
3.3537499,1176
3.3562499,1446
3.3587499,1833
3.3612499,2010
3.3637499,1827
3.3662499,1461
3.3687499,1203
3.3712499,1235
3.3737499,1553
3.3762499,1899
3.3787499,1967
3.3812499,1690
3.3837499,1330
3.3862499,1181
3.3887499,1327
3.3912499,1683
3.3937499,1961
3.3962499,1888
3.3987499,1567
3.4012499,1301
3.4037498999999998,1334
3.4062499,1701
3.4087499,2234
3.4112499,2578
3.4137499,2563
3.4162499,2362
3.4187499,2226
3.4212499,2302
3.4237499,2537
3.4262499,2697
3.4287499,2524
3.4312499,2007
3.4337499,1403
3.4362499,1008
3.4387499,992
3.4412499,1276
3.4437499,1558
3.4462499,1556
3.4487499,1303
3.4512499,1076
3.4537499,1086
3.4562499,1351
3.4587499,1727
3.4612499,1915
3.4637499,1730
3.4662498999999998,1364
3.4687499,1127
3.4712499,1174
3.4737499,1490
3.4762499,1832
3.4787499,1890
3.4812499,1619
3.4837499,1277
3.4862499,1134
3.4887499,1289
3.4912499,1659
3.4937499,1928
3.4962499,1838
3.4987499,1503
3.5012499,1189
3.5037499,1142
3.5062499,1405
3.5087499,1780
3.5112499,1964
3.5137499,1790
3.5162499,1427
3.5187499,1182
3.5212499,1243
3.5237499,1559
3.5262499,1896
3.5287498999999998,1965
3.5312499,1680
3.5337499,1324
3.5362499,1179
3.5387499,1329
3.5412499,1688
3.5437499,1969
3.5462499,1891
3.5487499,1551
3.5512499,1248
3.5537499,1200
3.5562499,1445
3.5587499,1820
3.5612499,1990
3.5637499,1801
3.5662499,1451
3.5687499,1208
3.5712499,1268
3.5737499,1601
3.5762499,1943
3.5787499,1994
3.5812499,1728
3.5837499,1382
3.5862499,1237
3.5887499,1408
3.5912498999999998,1767
3.5937499,2036
3.5962499,1967
3.5987499,1629
3.6012499,1324
3.6037499,1297
3.6062499,1554
3.6087499,1920
3.6112499,2094
3.6137499,1914
3.6162499,1566
3.6187499,1345
3.6212499,1405
3.6237499,1733
3.6262499,2081
3.6287499,2123
3.6312499,1838
3.6337499,1490
3.6362499,1339
3.6387499,1504
3.6412499,1882
3.6437499,2154
3.6462499,2083
3.6487499,1748
3.6512499,1426
3.6537498999999998,1380
3.6562499,1654
3.6587499,2028
3.6612499,2191
3.6637499,1983
3.6662499,1585
3.6687499,1316
3.6712499,1390
3.6737499,1719
3.6762499,2067
3.6787499,2115
3.6812499,1812
3.6837499,1435
3.6862499,1271
3.6887499,1406
3.6912499,1761
3.6937499,2025
3.6962499,1933
3.6987499,1583
3.7012499,1263
3.7037499,1198
3.7062499,1442
3.7087499,1811
3.7112499,1973
3.7137499,1777
3.7162498999999998,1414
3.7187499,1156
3.7212499,1205
3.7237499,1522
3.7262499,1848
3.7287499,1902
3.7312499,1637
3.7337499,1274
3.7362499,1127
3.7387499,1293
3.7412499,1666
3.7437499,1944
3.7462499,1875
3.7487499,1533
3.7512499,1224
3.7537499,1184
3.7562499,1427
3.7587499,1798
3.7612499,1969
3.7637499,1778
3.7662499,1424
3.7687499,1189
3.7712499,1234
3.7737499,1550
3.7762499,1882
3.7787498999999998,1923
3.7812499,1658
3.7837499,1326
3.7862499,1179
3.7887499,1324
3.7912499,1695
3.7937499,1973
3.7962499,1904
3.7987499,1571
3.8012499,1258
3.8037499,1218
3.8062499,1474
3.8087499,1838
3.8112499,2004
3.8137499,1807
3.8162499,1435
3.8187499,1194
3.8212499,1261
3.8237499,1587
3.8262499,1930
3.8287499,1977
3.8312499,1698
3.8337499,1350
3.8362499,1203
3.8387499,1350
3.8412498999999998,1717
3.8437499,1996
3.8462499,1922
3.8487499,1585
3.8512499,1266
3.8537499,1210
3.8562499,1466
3.8587499,1841
3.8612499,2012
3.8637499,1827
3.8662499,1448
3.8687499,1179
3.8712499,1239
3.8737499,1582
3.8762499,1933
3.8787499,2001
3.8812499,1732
3.8837499,1379
3.8862499,1234
3.8887499,1385
3.8912499,1728
3.8937499,1986
3.8962499,1909
3.8987499,1577
3.9012499,1284
3.9037499,1252
3.9062499,1533
3.9087499,1904
3.9112499,2043
3.9137499,1841
3.9162499,1475
3.9187499,1239
3.9212499,1293
3.9237499,1622
3.9262499,1965
3.9287499,2015
3.9312499,1741
3.9337499,1397
3.9362499,1252
3.9387499,1421
3.9412499,1785
3.9437499,2046
3.9462499,1964
3.9487499,1627
3.9512499,1318
3.9537499,1289
3.9562499,1545
3.9587499,1917
3.9612499,2093
3.9637499,1906
3.9662499,1540
3.9687499,1301
3.9712499,1371
3.9737499,1706
3.9762499,2049
3.9787499,2078
3.9812499,1772
3.9837499,1397
3.9862499,1240
3.9887499,1392
3.9912499,1759
3.9937499,2023
3.9962499,1941
3.9987499,1608
4.0012499,1293
4.003749900000001,1243
4.0062499,1506
4.008749900000001,1888
4.0112499,2048
4.0137499000000005,1848
4.0162499,1477
4.0187499,1229
4.021249900000001,1300
4.0237499,1633
4.026249900000001,1969
4.0287499,2009
4.031249900000001,1719
4.0337499,1363
4.0362499000000005,1227
4.0387499,1392
4.0412499,1751
4.043749900000001,2010
4.0462499,1914
4.048749900000001,1567
4.0512499,1284
4.053749900000001,1287
4.0562499,1609
4.0587499000000005,2081
4.061249900000001,2362
4.0637499,2299
4.066249900000001,2091
4.0687499,2014
4.071249900000001,2215
4.0737499,2632
4.0762499000000005,2971
4.0787499,2926
4.0812499,2483
4.083749900000001,1904
4.0862499,1504
4.088749900000001,1406
4.0912499,1546
4.093749900000001,1670
4.0962499,1548
4.0987499000000005,1229
4.1012499,968
4.1037499,989
4.106249900000001,1306
4.1087499,1740
4.111249900000001,1951
4.1137499,1766
4.116249900000001,1405
4.1187499,1181
4.1212499000000005,1248
4.123749900000001,1583
4.1262499,1938
4.128749900000001,1990
4.1312499,1709
4.133749900000001,1364
4.1362499,1214
4.1387499000000005,1371
4.1412499,1743
4.1437499,2006
4.146249900000001,1923
4.1487499,1596
4.151249900000001,1292
4.1537499,1258
4.156249900000001,1524
4.1587499,1891
4.1612499000000005,2057
4.1637499,1873
4.1662499,1508
4.168749900000001,1271
4.1712499,1332
4.173749900000001,1659
4.1762499,1999
4.178749900000001,2051
4.1812499,1754
4.1837499000000005,1392
4.186249900000001,1248
4.1887499,1405
4.191249900000001,1775
4.1937499,2064
4.196249900000001,2001
4.1987499,1667
4.2012499000000005,1359
4.2037499,1300
4.2062499,1548
4.208749900000001,1933
4.2112499,2107
4.213749900000001,1906
4.2162499,1550
4.218749900000001,1316
4.2212499,1382
4.2237499000000005,1717
4.2262499,2049
4.2287499,2086
4.231249900000001,1812
4.2337499,1463
4.236249900000001,1329
4.2387499,1514
4.241249900000001,1883
4.2437499,2138
4.2462499000000005,2056
4.248749900000001,1717
4.2512499,1422
4.253749900000001,1395
4.2562499,1650
4.258749900000001,2019
4.2612499,2186
4.2637499000000005,1985
4.2662499,1619
4.2687499,1400
4.271249900000001,1475
4.2737499,1814
4.276249900000001,2168
4.2787499,2213
4.281249900000001,1930
4.2837499,1582
4.2862499000000005,1437
4.288749900000001,1601
4.2912499,1986
4.293749900000001,2255
4.2962499,2170
4.298749900000001,1827
4.3012499,1504
4.303749900000001,1464
4.3062499,1732
4.3087499000000005,2104
4.311249900000001,2254
4.3137499,2067
4.316249900000001,1708
4.3187499,1484
4.321249900000001,1551
4.3237499,1864
4.3262499000000005,2183
4.3287499,2209
4.3312499,1894
4.333749900000001,1525
4.3362499,1374
4.338749900000001,1529
4.3412499,1885
4.343749900000001,2139
4.3462499,2033
4.3487499000000005,1666
4.351249900000001,1345
4.3537499,1305
4.356249900000001,1558
4.3587499,1927
4.361249900000001,2073
4.3637499,1869
4.366249900000001,1484
4.3687499,1264
4.3712499000000005,1351
4.373749900000001,1656
4.3762499,1969
4.378749900000001,1986
4.3812499,1704
4.383749900000001,1364
4.3862499,1240
4.3887499000000005,1421
4.3912499,1785
4.3937499,2044
4.396249900000001,1956
4.3987499,1600
4.401249900000001,1282
4.4037499,1250
4.406249900000001,1509
4.4087499,1886
4.4112499000000005,2062
4.413749900000001,1869
4.4162499,1514
4.418749900000001,1284
4.4212499,1342
4.423749900000001,1664
4.4262499,2001
4.428749900000001,2030
4.4312499,1738
4.4337499000000005,1393
4.436249900000001,1253
4.4387499,1435
4.441249900000001,1824
4.4437499,2081
4.446249900000001,1990
4.4487499,1643
4.4512499000000005,1324
4.4537499,1282
4.4562499,1542
4.458749900000001,1901
4.4612499,2054
4.463749900000001,1857
4.4662499,1496
4.468749900000001,1277
4.4712499,1364
4.4737499000000005,1693
4.476249900000001,2020
4.4787499,2039
4.481249900000001,1727
4.4837499,1380
4.486249900000001,1263
4.4887499,1440
4.491249900000001,1814
4.4937499,2073
4.4962499000000005,1970
4.498749900000001,1616
4.5012499,1314
4.503749900000001,1277
4.5062499,1545
4.508749900000001,1925
4.5112499,2078
4.5137499000000005,1873
4.5162499,1514
4.5187499,1281
4.521249900000001,1353
4.5237499,1679
4.526249900000001,2001
4.5287499,2027
4.531249900000001,1730
4.5337499,1371
4.5362499000000005,1242
4.538749900000001,1430
4.5412499,1814
4.543749900000001,2094
4.5462499,2017
4.548749900000001,1664
4.5512499,1351
4.553749900000001,1308
4.5562499,1559
4.5587499000000005,1935
4.561249900000001,2101
4.5637499,1898
4.566249900000001,1538
4.5687499,1308
4.571249900000001,1369
4.5737499,1704
4.5762499000000005,2057
4.5787499,2094
4.5812499,1809
4.583749900000001,1463
4.5862499,1318
4.588749900000001,1492
4.5912499,1857
4.593749900000001,2114
4.5962499,2036
4.5987499000000005,1706
4.601249900000001,1413
4.6037499,1398
4.606249900000001,1669
4.6087499,2038
4.611249900000001,2180
4.6137499,1946
4.616249900000001,1548
4.6187499,1292
4.6212499000000005,1361
4.623749900000001,1699
4.6262499,2046
4.628749900000001,2083
4.6312499,1782
4.633749900000001,1424
4.6362499,1272
4.6387499000000005,1419
4.6412499,1783
4.6437499,2046
4.646249900000001,1957
4.6487499,1630
4.651249900000001,1347
4.6537499,1326
4.656249900000001,1600
4.6587499,1977
4.6612499000000005,2123
4.663749900000001,1899
4.6662499,1513
4.668749900000001,1269
4.6712499,1343
4.673749900000001,1682
4.6762499,2015
4.678749900000001,2052
4.6812499,1759
4.6837499000000005,1409
4.686249900000001,1293
4.6887499,1495
4.691249900000001,1914
4.6937499,2262
4.696249900000001,2289
4.6987499,2085
4.7012499000000005,1944
4.7037499,2070
4.7062499,2468
4.708749900000001,2935
4.7112499,3098
4.713749900000001,2800
4.7162499,2252
4.718749900000001,1785
4.7212499,1600
4.7237499000000005,1688
4.726249900000001,1812
4.7287499,1717
4.731249900000001,1395
4.7337499,1082
4.736249900000001,1007
4.7387499,1240
4.741249900000001,1664
4.7437499,1967
4.7462499000000005,1902
4.748749900000001,1571
4.7512499,1271
4.753749900000001,1247
4.7562499,1514
4.758749900000001,1893
4.7612499,2068
4.7637499000000005,1870
4.7662499,1498
4.7687499,1276
4.771249900000001,1355
4.7737499,1683
4.776249900000001,2017
4.7787499,2043
4.781249900000001,1754
4.7837499,1408
4.7862499000000005,1277
4.788749900000001,1458
4.7912499,1828
4.793749900000001,2072
4.7962499,1952
4.798749900000001,1612
4.8012499,1337
4.803749900000001,1334
4.8062499,1619
4.8087499000000005,1988
4.811249900000001,2130
4.8137499,1919
4.816249900000001,1550
4.8187499,1308
4.821249900000001,1387
4.8237499,1717
4.8262499000000005,2067
4.8287499,2075
4.8312499,1767
4.833749900000001,1424
4.8362499,1316
4.838749900000001,1490
4.8412499,1862
4.843749900000001,2131
4.8462499,2039
4.8487499000000005,1696
4.851249900000001,1395
4.8537499,1359
4.856249900000001,1616
4.8587499,1991
4.861249900000001,2147
4.8637499,1949
4.866249900000001,1601
4.8687499,1372
4.8712499000000005,1446
4.873749900000001,1785
4.8762499,2106
4.878749900000001,2125
4.8812499,1830
4.883749900000001,1488
4.8862499,1374
4.8887499000000005,1577
4.8912499,1961
4.8937499,2236
4.896249900000001,2152
4.8987499,1785
4.901249900000001,1456
4.9037499,1426
4.906249900000001,1699
4.9087499,2085
4.9112499000000005,2273
4.913749900000001,2086
4.9162499,1725
4.918749900000001,1503
4.9212499,1572
4.923749900000001,1901
4.9262499,2234
4.928749900000001,2259
4.9312499,1969
4.9337499000000005,1635
4.936249900000001,1500
4.9387499,1664
4.941249900000001,2041
4.9437499,2300
4.946249900000001,2204
4.9487499,1862
4.9512499000000005,1553
4.9537499,1509
4.9562499,1764
4.958749900000001,2115
4.9612499,2252
4.963749900000001,2043
4.9662499,1667
4.968749900000001,1432
4.9712499,1495
4.9737499000000005,1799
4.976249900000001,2110
4.9787499,2125
4.981249900000001,1815
4.9837499,1464
4.986249900000001,1332
4.9887499,1488
4.991249900000001,1833
4.9937499,2088
4.9962499000000005,1990
4.998749900000001,1643
5.0012499,1334
5.003749900000001,1289
5.0062499,1551
5.008749900000001,1930
5.0112499,2078
5.0137499000000005,1870
5.0162499,1501
5.0187499,1263
5.021249900000001,1330
5.0237499,1664
5.026249900000001,1988
5.0287499,2023
5.031249900000001,1741
5.0337499,1377
5.0362499000000005,1235
5.038749900000001,1414
5.0412499,1782
5.043749900000001,2048
5.0462499,1965
5.048749900000001,1624
5.0512499,1329
5.053749900000001,1311
5.0562499,1566
5.0587499000000005,1927
5.061249900000001,2077
5.0637499,1861
5.066249900000001,1503
5.0687499,1285
5.071249900000001,1355
5.0737499,1682
5.0762499000000005,2022
5.0787499,2054
5.0812499,1769
5.083749900000001,1432
5.0862499,1279
5.088749900000001,1443
5.0912499,1811
5.093749900000001,2059
5.0962499,1965
5.0987499000000005,1633
5.101249900000001,1330
5.1037499,1308
5.106249900000001,1583
5.1087499,1951
5.111249900000001,2107
5.1137499,1906
5.116249900000001,1537
5.1187499,1297
5.1212499000000005,1368
5.123749900000001,1698
5.1262499,2031
5.128749900000001,2059
5.1312499,1754
5.133749900000001,1405
5.1362499,1277
5.1387499000000005,1450
5.1412499,1824
5.1437499,2086
5.146249900000001,1980
5.1487499,1633
5.151249900000001,1334
5.1537499,1298
5.156249900000001,1566
5.1587499,1948
5.1612499000000005,2096
5.163749900000001,1882
5.1662499,1517
5.168749900000001,1282
5.1712499,1356
5.173749900000001,1691
5.1762499,2014
5.178749900000001,2036
5.1812499,1740
5.1837499000000005,1392
5.186249900000001,1272
5.1887499,1466
5.191249900000001,1840
5.1937499,2094
5.196249900000001,1985
5.1987499,1619
5.2012499000000005,1316
5.2037499,1303
5.2062499,1574
5.208749900000001,1946
5.2112499,2097
5.213749900000001,1880
5.2162499,1511
5.218749900000001,1289
5.2212499,1374
5.2237499000000005,1725
5.226249900000001,2064
5.2287499,2077
5.231249900000001,1775
5.2337499,1427
5.236249900000001,1297
5.2387499,1484
5.241249900000001,1862
5.2437499,2117
5.2462499000000005,2020
5.248749900000001,1675
5.2512499,1371
5.253749900000001,1342
5.2562499,1616
5.258749900000001,1988
5.2612499,2144
5.2637499000000005,1943
5.2662499,1585
5.2687499,1364
5.271249900000001,1440
5.2737499,1757
5.276249900000001,2073
5.2787499,2075
5.281249900000001,1757
5.2837499,1403
5.2862499000000005,1279
5.288749900000001,1479
5.2912499,1857
5.293749900000001,2085
5.2962499,1965
5.298749900000001,1611
5.3012499,1300
5.303749900000001,1274
5.3062499,1558
5.3087499000000005,1935
5.311249900000001,2080
5.3137499,1877
5.316249900000001,1509
5.3187499,1277
5.321249900000001,1359
5.3237499,1699
5.3262499000000005,2019
5.3287499,2038
5.3312499,1737
5.333749900000001,1384
5.3362499,1260
5.338749900000001,1442
5.3412499,1804
5.343749900000001,2052
5.3462499,1946
5.3487499000000005,1609
5.351249900000001,1337
5.3537499,1355
5.356249900000001,1693
5.3587499,2165
5.361249900000001,2442
5.3637499,2397
5.366249900000001,2230
5.3687499,2188
5.3712499000000005,2396
5.373749900000001,2761
5.3762499,3005
5.378749900000001,2855
5.3812499,2349
5.383749900000001,1749
5.3862499,1356
5.3887499000000005,1305
5.3912499,1532
5.3937499,1727
5.396249900000001,1648
5.3987499,1350
5.401249900000001,1108
5.4037499,1139
5.406249900000001,1437
5.4087499,1817
5.4112499000000005,1981
5.413749900000001,1780
5.4162499,1414
5.418749900000001,1205
5.4212499,1295
5.423749900000001,1635
5.4262499,1975
5.428749900000001,2002
5.4312499,1699
5.4337499000000005,1356
5.436249900000001,1234
5.4387499,1417
5.441249900000001,1801
5.4437499,2051
5.446249900000001,1938
5.4487499,1592
5.4512499000000005,1293
5.4537499,1271
5.4562499,1553
5.458749900000001,1932
5.4612499,2073
5.463749900000001,1857
5.4662499,1493
5.468749900000001,1269
5.4712499,1359
5.4737499000000005,1693
5.476249900000001,2015
5.4787499,2043
5.481249900000001,1749
5.4837499,1400
5.486249900000001,1281
5.4887499,1466
5.491249900000001,1841
5.4937499,2101
5.4962499000000005,1998
5.498749900000001,1645
5.5012499,1343
5.503749900000001,1311
5.5062499,1585
5.508749900000001,1959
5.5112499,2101
5.5137499000000005,1885
5.5162499,1524
5.5187499,1300
5.521249900000001,1384
5.5237499,1730
5.526249900000001,2062
5.5287499,2080
5.531249900000001,1791
5.5337499,1448
5.5362499000000005,1326
5.538749900000001,1522
5.5412499,1891
5.543749900000001,2138
5.5462499,2043
5.548749900000001,1691
5.5512499,1390
5.553749900000001,1374
5.5562499,1654
5.5587499000000005,2031
5.561249900000001,2189
5.5637499,1988
5.566249900000001,1637
5.5687499,1422
5.571249900000001,1513
5.5737499,1851
5.5762499000000005,2181
5.5787499,2197
5.5812499,1899
5.583749900000001,1563
5.5862499,1446
5.588749900000001,1635
5.5912499,2028
5.593749900000001,2283
5.5962499,2178
5.5987499000000005,1835
5.601249900000001,1533
5.6037499,1504
5.606249900000001,1770
5.6087499,2125
5.611249900000001,2255
5.6137499,2043
5.616249900000001,1680
5.6187499,1466
5.6212499000000005,1558
5.623749900000001,1885
5.6262499,2197
5.628749900000001,2201
5.6312499,1873
5.633749900000001,1506
5.6362499,1377
5.6387499000000005,1554
5.6412499,1907
5.6437499,2139
5.646249900000001,2010
5.6487499,1643
5.651249900000001,1335
5.6537499,1298
5.656249900000001,1561
5.6587499,1925
5.6612499000000005,2056
5.663749900000001,1832
5.6662499,1471
5.668749900000001,1242
5.6712499,1314
5.673749900000001,1650
5.6762499,1978
5.678749900000001,2004
5.6812499,1720
5.6837499000000005,1376
5.686249900000001,1253
5.6887499,1445
5.691249900000001,1806
5.6937499,2039
5.696249900000001,1923
5.6987499,1567
5.7012499000000005,1271
5.7037499,1260
5.7062499,1532
5.708749900000001,1898
5.7112499,2041
5.713749900000001,1822
5.7162499,1464
5.718749900000001,1258
5.7212499,1348
5.7237499000000005,1693
5.726249900000001,2023
5.7287499,2027
5.731249900000001,1712
5.7337499,1363
5.736249900000001,1221
5.7387499,1393
5.741249900000001,1774
5.7437499,2035
5.7462499000000005,1906
5.748749900000001,1569
5.7512499,1301
5.753749900000001,1284
5.7562499,1561
5.758749900000001,1917
5.7612499,2052
5.7637499000000005,1844
5.7662499,1479
5.7687499,1261
5.771249900000001,1345
5.7737499,1669
5.776249900000001,1996
5.7787499,2025
5.781249900000001,1720
5.7837499,1369
5.7862499000000005,1245
5.788749900000001,1422
5.7912499,1796
5.793749900000001,2051
5.7962499,1930
5.798749900000001,1571
5.8012499,1274
5.803749900000001,1255
5.8062499,1533
5.8087499000000005,1902
5.811249900000001,2028
5.8137499,1803
5.816249900000001,1445
5.8187499,1226
5.821249900000001,1311
5.8237499,1659
5.8262499000000005,1983
5.8287499,1990
5.8312499,1691
5.833749900000001,1345
5.8362499,1229
5.838749900000001,1419
5.8412499,1783
5.843749900000001,2030
5.8462499,1919
5.8487499000000005,1566
5.851249900000001,1272
5.8537499,1263
5.856249900000001,1540
5.8587499,1907
5.861249900000001,2052
5.8637499,1817
5.866249900000001,1446
5.8687499,1237
5.8712499000000005,1319
5.873749900000001,1661
5.8762499,1986
5.878749900000001,1990
5.8812499,1683
5.883749900000001,1340
5.8862499,1218
5.8887499000000005,1414
5.8912499,1807
5.8937499,2054
5.896249900000001,1936
5.8987499,1580
5.901249900000001,1281
5.9037499,1274
5.906249900000001,1564
5.9087499,1919
5.9112499000000005,2052
5.913749900000001,1827
5.9162499,1455
5.918749900000001,1242
5.9212499,1339
5.923749900000001,1674
5.9262499,2004
5.928749900000001,2028
5.9312499,1724
5.9337499000000005,1371
5.936249900000001,1250
5.9387499,1435
5.941249900000001,1809
5.9437499,2057
5.946249900000001,1935
5.9487499,1583
5.9512499000000005,1297
5.9537499,1281
5.9562499,1563
5.958749900000001,1933
5.9612499,2064
5.963749900000001,1848
5.9662499,1493
5.968749900000001,1277
5.9712499,1379
5.9737499000000005,1727
5.976249900000001,2048
5.9787499,2064
5.981249900000001,1757
5.9837499,1405
5.986249900000001,1298
5.9887499,1495
5.991249900000001,1867
5.9937499,2112
5.9962499000000005,2001
5.998749900000001,1656
6.0012499,1380
6.003749900000001,1372
6.0062499,1638
6.008749900000001,1991
6.0112499,2106
6.0137499000000005,1862
6.016249900000001,1501
6.0187499,1297
6.021249900000001,1379
6.0237499,1706
6.026249900000001,2007
6.0287499,1990
6.031249900000001,1674
6.0337499,1332
6.0362499000000005,1221
6.038749900000001,1426
6.0412499,1806
6.043749900000001,2041
6.0462499,1915
6.048749900000001,1551
6.0512499,1250
6.053749900000001,1242
6.0562499,1525
6.0587499000000005,1882
6.061249900000001,2007
6.0637499,1778
6.066249900000001,1416
6.0687499,1224
6.071249900000001,1343
6.0737499,1685
6.0762499000000005,1996
6.078749900000001,1981
6.0812499,1658
6.083749900000001,1311
6.0862499,1213
6.088749900000001,1427
6.0912499,1843
6.093749900000001,2143
6.0962499,2107
6.0987499000000005,1885
6.101249900000001,1757
6.1037499,1922
6.106249900000001,2389
6.1087499,2903
6.111249900000001,3109
6.1137499,2852
6.116249900000001,2339
6.1187499,1898
6.1212499000000005,1738
6.123749900000001,1822
6.1262499,1890
6.128749900000001,1701
6.1312499,1292
6.133749900000001,926
6.1362499,852
6.1387499000000005,1111
6.141249900000001,1561
6.1437499,1864
6.146249900000001,1775
6.1487499,1437
6.151249900000001,1166
6.1537499,1166
6.156249900000001,1450
6.1587499,1825
6.1612499000000005,1957
6.163749900000001,1735
6.1662499,1384
6.168749900000001,1179
6.1712499,1276
6.173749900000001,1624
6.1762499,1935
6.178749900000001,1925
6.1812499,1611
6.1837499000000005,1281
6.186249900000001,1189
6.1887499,1400
6.191249900000001,1769
6.1937499,1998
6.196249900000001,1853
6.1987499,1493
6.2012499000000005,1227
6.203749900000001,1263
6.2062499,1529
6.208749900000001,1880
6.2112499,2001
6.213749900000001,1762
6.2162499,1401
6.218749900000001,1210
6.2212499,1318
6.2237499000000005,1659
6.226249900000001,1978
6.2287499,1970
6.231249900000001,1656
6.2337499,1324
6.236249900000001,1219
6.2387499,1419
6.241249900000001,1798
6.2437499,2027
6.2462499000000005,1898
6.248749900000001,1545
6.2512499,1256
6.253749900000001,1266
6.2562499,1577
6.258749900000001,1943
6.2612499,2059
6.2637499000000005,1820
6.266249900000001,1443
6.2687499,1232
6.271249900000001,1347
6.2737499,1703
6.276249900000001,2043
6.2787499,2064
6.281249900000001,1756
6.2837499,1417
6.2862499000000005,1322
6.288749900000001,1525
6.2912499,1899
6.293749900000001,2138
6.2962499,2009
6.298749900000001,1653
6.3012499,1377
6.303749900000001,1374
6.3062499,1654
6.3087499000000005,2030
6.311249900000001,2162
6.3137499,1943
6.316249900000001,1592
6.3187499,1390
6.321249900000001,1495
6.3237499,1851
6.3262499000000005,2162
6.328749900000001,2155
6.3312499,1857
6.333749900000001,1524
6.3362499,1426
6.338749900000001,1629
6.3412499,1996
6.343749900000001,2228
6.3462499,2104
6.3487499000000005,1738
6.351249900000001,1450
6.3537499,1461
6.356249900000001,1754
6.3587499,2122
6.361249900000001,2242
6.3637499,1991
6.366249900000001,1609
6.3687499,1400
6.3712499000000005,1492
6.373749900000001,1833
6.3762499,2136
6.378749900000001,2099
6.3812499,1761
6.383749900000001,1409
6.3862499,1282
6.3887499000000005,1471
6.391249900000001,1838
6.3937499,2059
6.396249900000001,1915
6.3987499,1558
6.401249900000001,1263
6.4037499,1261
6.406249900000001,1554
6.4087499,1909
6.4112499000000005,2022
6.413749900000001,1783
6.4162499,1403
6.418749900000001,1200
6.4212499,1316
6.423749900000001,1664
6.4262499,1970
6.428749900000001,1959
6.4312499,1638
6.4337499000000005,1295
6.436249900000001,1198
6.4387499,1406
6.441249900000001,1795
6.4437499,2043
6.446249900000001,1891
6.4487499,1525
6.4512499000000005,1243
6.453749900000001,1232
6.4562499,1517
6.458749900000001,1894
6.4612499,2014
6.463749900000001,1780
6.4662499,1422
6.468749900000001,1219
6.4712499,1322
6.4737499000000005,1679
6.476249900000001,1988
6.4787499,1978
6.481249900000001,1667
6.4837499,1324
6.486249900000001,1223
6.4887499,1434
6.491249900000001,1804
6.4937499,2030
6.4962499000000005,1899
6.498749900000001,1535
6.5012499,1250
6.503749900000001,1258
6.5062499,1546
6.508749900000001,1911
6.5112499,2030
6.5137499000000005,1780
6.516249900000001,1414
6.5187499,1224
6.521249900000001,1332
6.5237499,1688
6.526249900000001,2019
6.5287499,2009
6.531249900000001,1685
6.5337499,1335
6.5362499000000005,1224
6.538749900000001,1429
6.5412499,1814
6.543749900000001,2046
6.5462499,1907
6.548749900000001,1556
6.5512499,1269
6.553749900000001,1269
6.5562499,1564
6.5587499000000005,1915
6.561249900000001,2019
6.5637499,1777
6.566249900000001,1405
6.5687499,1202
6.571249900000001,1314
6.5737499,1679
6.5762499000000005,2022
6.578749900000001,2036
6.5812499,1706
6.583749900000001,1348
6.5862499,1237
6.588749900000001,1429
6.5912499,1796
6.593749900000001,2023
6.5962499,1878
6.5987499000000005,1519
6.601249900000001,1245
6.6037499,1252
6.606249900000001,1551
6.6087499,1920
6.611249900000001,2025
6.6137499,1783
6.616249900000001,1426
6.6187499,1224
6.6212499000000005,1337
6.623749900000001,1691
6.6262499,1996
6.628749900000001,1975
6.6312499,1654
6.633749900000001,1321
6.6362499,1240
6.6387499000000005,1467
6.641249900000001,1843
6.6437499,2060
6.646249900000001,1915
6.6487499,1553
6.651249900000001,1263
6.6537499,1297
6.656249900000001,1600
6.6587499,1920
6.6612499000000005,2022
6.663749900000001,1775
6.6662499,1421
6.668749900000001,1243
6.6712499,1361
6.673749900000001,1719
6.6762499,2027
6.678749900000001,2009
6.6812499,1698
6.6837499000000005,1366
6.686249900000001,1264
6.6887499,1474
6.691249900000001,1848
6.6937499,2067
6.696249900000001,1930
6.6987499,1571
6.7012499000000005,1274
6.703749900000001,1287
6.7062499,1596
6.708749900000001,1962
6.7112499,2075
6.713749900000001,1825
6.7162499,1453
6.718749900000001,1269
6.7212499,1400
6.7237499000000005,1754
6.726249900000001,2059
6.7287499,2023
6.731249900000001,1688
6.7337499,1359
6.736249900000001,1285
6.7387499,1511
6.741249900000001,1888
6.7437499,2094
6.7462499000000005,1941
6.748749900000001,1600
6.7512499,1330
6.753749900000001,1343
6.7562499,1643
6.758749900000001,1998
6.7612499,2097
6.7637499000000005,1861
6.766249900000001,1500
6.7687499,1306
6.771249900000001,1438
6.7737499,1811
6.776249900000001,2118
6.7787499,2097
6.781249900000001,1767
6.7837499,1417
6.7862499000000005,1318
6.788749900000001,1521
6.7912499,1882
6.793749900000001,2096
6.7962499,1946
6.798749900000001,1582
6.8012499,1308
6.803749900000001,1321
6.8062499,1606
6.8087499000000005,1965
6.811249900000001,2067
6.8137499,1809
6.816249900000001,1446
6.8187499,1250
6.821249900000001,1371
6.8237499,1732
6.8262499000000005,2023
6.828749900000001,1985
6.8312499,1666
6.833749900000001,1330
6.8362499,1239
6.838749900000001,1463
6.8412499,1836
6.843749900000001,2044
6.8462499,1896
6.8487499000000005,1532
6.851249900000001,1252
6.8537499,1269
6.856249900000001,1577
6.8587499,1940
6.861249900000001,2044
6.8637499,1806
6.866249900000001,1488
6.8687499,1382
6.8712499000000005,1606
6.873749900000001,2097
6.8762499,2579
6.878749900000001,2731
6.8812499,2571
6.883749900000001,2362
6.8862499,2297
6.8887499000000005,2431
6.891249900000001,2642
6.8937499,2640
6.896249900000001,2252
6.8987499,1648
6.901249900000001,1123
6.9037499,958
6.906249900000001,1184
6.9087499,1551
6.9112499000000005,1701
6.913749900000001,1527
6.9162499,1224
6.918749900000001,1082
6.9212499,1240
6.923749900000001,1616
6.9262499,1932
6.928749900000001,1923
6.9312499,1611
6.9337499000000005,1285
6.936249900000001,1213
6.9387499,1429
6.941249900000001,1796
6.9437499,2004
6.946249900000001,1836
6.9487499,1482
6.9512499000000005,1231
6.953749900000001,1263
6.9562499,1574
6.958749900000001,1933
6.9612499,2022
6.963749900000001,1775
6.9662499,1422
6.968749900000001,1235
6.9712499,1353
6.9737499000000005,1711
6.976249900000001,2002
6.9787499,1959
6.981249900000001,1630
6.9837499,1292
6.986249900000001,1219
6.9887499,1474
6.991249900000001,1857
6.9937499,2064
6.9962499000000005,1907
6.998749900000001,1542
7.0012499,1271
7.003749900000001,1298
7.0062499,1601
7.008749900000001,1969
7.0112499,2077
7.0137499000000005,1819
7.016249900000001,1458
7.0187499,1277
7.021249900000001,1393
7.0237499,1751
7.026249900000001,2065
7.0287499,2025
7.031249900000001,1696
7.0337499,1372
7.0362499000000005,1290
7.038749900000001,1517
7.0412499,1906
7.043749900000001,2115
7.0462499,1961
7.048749900000001,1609
7.0512499,1345
7.053749900000001,1376
7.0562499,1693
7.0587499000000005,2044
7.061249900000001,2128
7.0637499,1877
7.066249900000001,1511
7.0687499,1329
7.071249900000001,1477
7.0737499,1844
7.0762499000000005,2162
7.078749900000001,2143
7.0812499,1812
7.083749900000001,1485
7.0862499,1406
7.088749900000001,1616
7.0912499,1983
7.093749900000001,2210
7.0962499,2072
7.0987499000000005,1733
7.101249900000001,1479
7.1037499,1522
7.106249900000001,1836
7.1087499,2164
7.111249900000001,2247
7.1137499,1998
7.116249900000001,1645
7.1187499,1463
7.1212499000000005,1592
7.123749900000001,1951
7.1262499,2233
7.128749900000001,2194
7.1312499,1875
7.133749900000001,1543
7.1362499,1455
7.1387499000000005,1680
7.141249900000001,2039
7.1437499,2230
7.146249900000001,2065
7.1487499,1682
7.151249900000001,1395
7.1537499,1421
7.156249900000001,1706
7.1587499,2046
7.1612499000000005,2122
7.163749900000001,1844
7.1662499,1472
7.168749900000001,1290
7.1712499,1408
7.173749900000001,1753
7.1762499,2035
7.178749900000001,1967
7.1812499,1640
7.1837499000000005,1334
7.186249900000001,1261
7.1887499,1484
7.191249900000001,1853
7.1937499,2036
7.196249900000001,1870
7.1987499,1513
7.2012499000000005,1240
7.203749900000001,1260
7.2062499,1559
7.208749900000001,1901
7.2112499,1996
7.213749900000001,1761
7.2162499,1405
7.218749900000001,1239
7.2212499,1379
7.2237499000000005,1737
7.226249900000001,2031
7.2287499,1985
7.231249900000001,1637
7.2337499,1303
7.236249900000001,1234
7.2387499,1450
7.241249900000001,1822
7.2437499,2038
7.2462499000000005,1873
7.248749900000001,1509
7.2512499,1252
7.253749900000001,1276
7.2562499,1596
7.258749900000001,1967
7.2612499,2064
7.2637499000000005,1820
7.266249900000001,1464
7.2687499,1274
7.271249900000001,1397
7.2737499,1748
7.276249900000001,2033
7.2787499,1981
7.281249900000001,1640
7.2837499,1310
7.2862499000000005,1248
7.288749900000001,1487
7.2912499,1853
7.293749900000001,2072
7.2962499,1919
7.298749900000001,1553
7.3012499,1272
7.303749900000001,1277
7.3062499,1551
7.3087499000000005,1891
7.311249900000001,1991
7.3137499,1756
7.316249900000001,1416
7.3187499,1250
7.321249900000001,1379
7.3237499,1737
7.3262499000000005,2020
7.328749900000001,1961
7.3312499,1633
7.333749900000001,1308
7.3362499,1224
7.338749900000001,1469
7.3412499,1865
7.343749900000001,2067
7.3462499,1906
7.3487499000000005,1542
7.351249900000001,1268
7.3537499,1301
7.356249900000001,1617
7.3587499,1965
7.361249900000001,2038
7.3637499,1762
7.366249900000001,1392
7.3687499,1223
7.3712499000000005,1355
7.373749900000001,1711
7.3762499,2002
7.378749900000001,1957
7.3812499,1633
7.383749900000001,1316
7.3862499,1239
7.3887499000000005,1450
7.391249900000001,1825
7.3937499,2044
7.396249900000001,1898
7.3987499,1554
7.401249900000001,1303
7.4037499,1329
7.406249900000001,1629
7.4087499,1969
7.4112499000000005,2038
7.413749900000001,1785
7.4162499,1430
7.418749900000001,1263
7.4212499,1405
7.423749900000001,1759
7.4262499,2041
7.428749900000001,1988
7.4312499,1646
7.4337499000000005,1311
7.436249900000001,1248
7.4387499,1490
7.441249900000001,1870
7.4437499,2067
7.446249900000001,1894
7.4487499,1533
7.4512499000000005,1279
7.453749900000001,1313
7.4562499,1624
7.458749900000001,1978
7.4612499,2059
7.463749900000001,1790
7.4662499,1445
7.468749900000001,1282
7.4712499,1417
7.4737499000000005,1775
7.476249900000001,2059
7.4787499,2007
7.481249900000001,1680
7.4837499,1353
7.486249900000001,1284
7.4887499,1527
7.491249900000001,1912
7.4937499,2112
7.4962499000000005,1952
7.498749900000001,1593
7.5012499,1332
7.503749900000001,1379
7.5062499,1699
7.508749900000001,2057
7.5112499,2133
7.5137499000000005,1851
7.516249900000001,1482
7.5187499,1318
7.521249900000001,1461
7.5237499,1811
7.526249900000001,2097
7.5287499,2035
7.531249900000001,1704
7.5337499,1384
7.5362499000000005,1303
7.538749900000001,1519
7.5412499,1877
7.543749900000001,2048
7.5462499,1873
7.548749900000001,1521
7.5512499,1269
7.553749900000001,1321
7.5562499,1650
7.5587499000000005,1981
7.561249900000001,2031
7.5637499,1772
7.566249900000001,1417
7.5687499,1253
7.571249900000001,1406
7.5737499,1761
7.5762499000000005,2038
7.578749900000001,1986
7.5812499,1653
7.583749900000001,1334
7.5862499,1282
7.588749900000001,1517
7.5912499,1885
7.593749900000001,2075
7.5962499,1886
7.5987499000000005,1513
7.601249900000001,1274
7.6037499,1348
7.606249900000001,1730
7.6087499,2175
7.611249900000001,2336
7.6137499,2189
7.616249900000001,1977
7.6187499,1946
7.6212499000000005,2202
7.623749900000001,2616
7.6262499,2856
7.628749900000001,2692
7.6312499,2202
7.633749900000001,1680
7.6362499,1398
7.6387499000000005,1430
7.641249900000001,1645
7.6437499,1749
7.646249900000001,1571
7.6487499,1239
7.651249900000001,1044
7.6537499,1152
7.656249900000001,1504
7.6587499,1859
7.6612499000000005,1941
7.663749900000001,1674
7.6662499,1329
7.668749900000001,1192
7.6712499,1343
7.673749900000001,1708
7.6762499,1998
7.678749900000001,1941
7.6812499,1608
7.6837499000000005,1293
7.686249900000001,1235
7.6887499,1485
7.691249900000001,1877
7.6937499,2064
7.696249900000001,1878
7.6987499,1524
7.7012499000000005,1276
7.703749900000001,1314
7.7062499,1632
7.708749900000001,1965
7.7112499,2023
7.713749900000001,1761
7.7162499,1405
7.718749900000001,1247
7.7212499,1408
7.7237499000000005,1777
7.726249900000001,2056
7.7287499,2014
7.731249900000001,1682
7.7337499,1355
7.736249900000001,1298
7.7387499,1537
7.741249900000001,1907
7.743749900000001,2094
7.7462499000000005,1917
7.748749900000001,1553
7.7512499,1306
7.753749900000001,1342
7.7562499,1653
7.758749900000001,2002
7.7612499,2068
7.7637499000000005,1798
7.766249900000001,1453
7.7687499,1292
7.771249900000001,1443
7.7737499,1820
7.776249900000001,2102
7.7787499,2036
7.781249900000001,1704
7.7837499,1384
7.7862499000000005,1335
7.788749900000001,1585
7.7912499,1959
7.793749900000001,2154
7.7962499,1981
7.798749900000001,1612
7.8012499,1356
7.803749900000001,1406
7.806249900000001,1720
7.8087499000000005,2073
7.811249900000001,2157
7.8137499,1890
7.816249900000001,1529
7.8187499,1379
7.821249900000001,1529
7.8237499,1901
7.8262499000000005,2194
7.828749900000001,2135
7.8312499,1804
7.833749900000001,1493
7.8362499,1432
7.838749900000001,1679
7.8412499,2059
7.843749900000001,2241
7.8462499,2073
7.8487499000000005,1720
7.851249900000001,1467
7.8537499,1506
7.856249900000001,1819
7.8587499,2168
7.861249900000001,2234
7.8637499,1969
7.866249900000001,1598
7.868749900000001,1426
7.8712499000000005,1572
7.873749900000001,1925
7.8762499,2197
7.878749900000001,2123
7.8812499,1769
7.883749900000001,1448
7.8862499,1384
7.8887499000000005,1601
7.891249900000001,1957
7.8937499,2131
7.896249900000001,1925
7.8987499,1548
7.901249900000001,1297
7.9037499,1342
7.906249900000001,1658
7.9087499,1998
7.9112499000000005,2044
7.913749900000001,1759
7.9162499,1388
7.918749900000001,1218
7.9212499,1363
7.923749900000001,1722
7.9262499,1996
7.928749900000001,1938
7.931249900000001,1609
7.9337499000000005,1277
7.936249900000001,1227
7.9387499,1484
7.941249900000001,1853
7.9437499,2030
7.946249900000001,1838
7.9487499,1469
7.9512499000000005,1235
7.953749900000001,1300
7.9562499,1621
7.958749900000001,1956
7.9612499,2007
7.963749900000001,1719
7.9662499,1361
7.968749900000001,1205
7.9712499,1364
7.9737499000000005,1727
7.976249900000001,2009
7.9787499,1940
7.981249900000001,1614
7.9837499,1305
7.986249900000001,1248
7.9887499,1501
7.991249900000001,1875
7.993749900000001,2057
7.9962499000000005,1896
7.998749900000001,1546
8.0012499,1295
8.003749899999999,1358
8.0062499,1683
8.0087499,2001
8.0112499,2031
8.013749899999999,1751
8.0162499,1397
8.0187499,1256
8.021249899999999,1416
8.0237499,1780
8.0262499,2059
8.0287499,1994
8.031249899999999,1650
8.0337499,1326
8.0362499,1269
8.0387499,1521
8.0412499,1893
8.0437499,2059
8.0462499,1861
8.048749899999999,1503
8.0512499,1255
8.0537499,1303
8.0562499,1629
8.0587499,1964
8.0612499,2017
8.0637499,1749
8.066249899999999,1400
8.0687499,1247
8.0712499,1406
8.0737499,1764
8.076249899999999,2025
8.0787499,1949
8.0812499,1612
8.083749899999999,1297
8.0862499,1279
8.0887499,1542
8.0912499,1894
8.093749899999999,2073
8.0962499,1878
8.0987499,1488
8.1012499,1227
8.1037499,1276
8.1062499,1600
8.1087499,1954
8.111249899999999,2023
8.1137499,1759
8.1162499,1413
8.1187499,1258
8.1212499,1398
8.1237499,1761
8.1262499,2033
8.128749899999999,1954
8.1312499,1629
8.1337499,1324
8.1362499,1277
8.138749899999999,1521
8.1412499,1875
8.1437499,2041
8.146249899999999,1861
8.1487499,1501
8.1512499,1255
8.1537499,1319
8.156249899999999,1633
8.1587499,1967
8.1612499,2023
8.1637499,1751
8.1662499,1409
8.1687499,1277
8.1712499,1442
8.173749899999999,1804
8.1762499,2086
8.1787499,2004
8.1812499,1651
8.1837499,1340
8.1862499,1285
8.1887499,1525
8.191249899999999,1907
8.1937499,2089
8.1962499,1907
8.1987499,1566
8.201249899999999,1335
8.2037499,1400
8.2062499,1735
8.208749899999999,2075
8.2112499,2110
8.2137499,1814
8.2162499,1435
8.218749899999999,1263
8.2212499,1416
8.2237499,1770
8.2262499,2041
8.2287499,1967
8.2312499,1619
8.2337499,1310
8.236249899999999,1276
8.2387499,1529
8.2412499,1901
8.2437499,2068
8.2462499,1864
8.2487499,1496
8.2512499,1261
8.253749899999999,1322
8.2562499,1640
8.2587499,1983
8.2612499,2030
8.263749899999999,1748
8.2662499,1408
8.2687499,1266
8.271249899999999,1427
8.2737499,1801
8.2762499,2041
8.2787499,1933
8.281249899999999,1583
8.2837499,1281
8.2862499,1289
8.2887499,1617
8.2912499,2068
8.2937499,2323
8.2962499,2239
8.298749899999999,1975
8.3012499,1836
8.3037499,1988
8.3062499,2342
8.3087499,2655
8.3112499,2628
8.3137499,2205
8.316249899999999,1682
8.3187499,1368
8.3212499,1347
8.3237499,1567
8.326249899999999,1754
8.3287499,1646
8.3312499,1329
8.333749899999999,1081
8.3362499,1082
8.3387499,1376
8.3412499,1783
8.343749899999999,1972
8.3462499,1791
8.3487499,1445
8.3512499,1206
8.3537499,1271
8.3562499,1603
8.3587499,1930
8.361249899999999,1980
8.3637499,1711
8.3662499,1358
8.3687499,1216
8.3712499,1395
8.3737499,1759
8.3762499,2020
8.378749899999999,1933
8.3812499,1574
8.3837499,1258
8.3862499,1227
8.388749899999999,1490
8.3912499,1870
8.3937499,2041
8.396249899999999,1838
8.3987499,1466
8.4012499,1226
8.4037499,1276
8.406249899999999,1604
8.4087499,1948
8.4112499,1986
8.4137499,1706
8.4162499,1361
8.4187499,1211
8.4212499,1376
8.423749899999999,1745
8.4262499,2009
8.4287499,1933
8.4312499,1604
8.4337499,1293
8.4362499,1250
8.4387499,1517
8.441249899999999,1886
8.4437499,2056
8.4462499,1869
8.4487499,1504
8.451249899999999,1266
8.4537499,1321
8.4562499,1630
8.458749899999999,1980
8.4612499,2010
8.4637499,1724
8.4662499,1390
8.468749899999999,1272
8.4712499,1430
8.4737499,1793
8.4762499,2059
8.4787499,1970
8.4812499,1641
8.4837499,1347
8.486249899999999,1306
8.4887499,1567
8.4912499,1949
8.4937499,2114
8.4962499,1915
8.4987499,1558
8.5012499,1322
8.503749899999999,1397
8.5062499,1743
8.5087499,2086
8.5112499,2135
8.513749899999999,1857
8.5162499,1501
8.5187499,1356
8.521249899999999,1543
8.5237499,1922
8.5262499,2188
8.5287499,2096
8.531249899999999,1732
8.5337499,1424
8.5362499,1392
8.5387499,1638
8.5412499,2001
8.5437499,2157
8.5462499,1957
8.548749899999999,1611
8.5512499,1400
8.5537499,1469
8.5562499,1795
8.5587499,2120
8.5612499,2130
8.5637499,1820
8.566249899999999,1458
8.5687499,1298
8.5712499,1450
8.5737499,1799
8.5762499,2044
8.5787499,1952
8.5812499,1614
8.583749899999999,1301
8.5862499,1253
8.5887499,1498
8.5912499,1853
8.593749899999999,2009
8.5962499,1812
8.5987499,1445
8.6012499,1205
8.6037499,1258
8.6062499,1569
8.6087499,1902
8.611249899999999,1952
8.6137499,1667
8.6162499,1326
8.6187499,1192
8.6212499,1356
8.6237499,1720
8.6262499,1975
8.628749899999999,1877
8.6312499,1543
8.6337499,1239
8.6362499,1198
8.6387499,1456
8.6412499,1825
8.6437499,1980
8.646249899999999,1780
8.6487499,1417
8.6512499,1182
8.6537499,1253
8.656249899999999,1582
8.6587499,1922
8.6612499,1977
8.6637499,1704
8.6662499,1361
8.6687499,1226
8.6712499,1387
8.673749899999999,1735
8.6762499,1986
8.6787499,1891
8.6812499,1538
8.6837499,1235
8.6862499,1198
8.6887499,1451
8.691249899999999,1825
8.6937499,1998
8.6962499,1803
8.6987499,1448
8.7012499,1221
8.7037499,1287
8.7062499,1621
8.708749899999999,1949
8.7112499,1972
8.7137499,1679
8.7162499,1326
8.718749899999999,1184
8.7212499,1359
8.7237499,1725
8.7262499,1977
8.7287499,1885
8.7312499,1542
8.7337499,1240
8.736249899999999,1221
8.7387499,1487
8.7412499,1856
8.7437499,2015
8.7462499,1803
8.7487499,1424
8.7512499,1187
8.753749899999999,1255
8.7562499,1582
8.7587499,1914
8.7612499,1946
8.7637499,1653
8.7662499,1308
8.7687499,1174
8.771249899999999,1347
8.7737499,1725
8.7762499,1986
8.7787499,1893
8.781249899999999,1550
8.7837499,1232
8.7862499,1184
8.7887499,1445
8.7912499,1804
8.7937499,1954
8.7962499,1754
8.798749899999999,1403
8.8012499,1185
8.8037499,1266
8.8062499,1593
8.8087499,1920
8.8112499,1956
8.8137499,1664
8.816249899999999,1308
8.8187499,1173
8.8212499,1335
8.8237499,1696
8.8262499,1954
8.8287499,1861
8.8312499,1519
8.833749899999999,1234
8.8362499,1194
8.8387499,1459
8.8412499,1846
8.843749899999999,2006
8.8462499,1801
8.8487499,1450
8.8512499,1223
8.8537499,1290
8.8562499,1625
8.8587499,1946
8.861249899999999,1967
8.8637499,1680
8.8662499,1337
8.8687499,1213
8.8712499,1397
8.8737499,1762
8.8762499,2010
8.878749899999999,1909
8.8812499,1548
8.8837499,1219
8.8862499,1168
8.8887499,1426
8.8912499,1796
8.8937499,1961
8.896249899999999,1738
8.8987499,1368
8.9012499,1156
8.9037499,1234
8.906249899999999,1558
8.9087499,1882
8.9112499,1906
8.9137499,1617
8.9162499,1263
8.9187499,1155
8.9212499,1347
8.923749899999999,1717
8.9262499,1936
8.9287499,1830
8.9312499,1488
8.9337499,1179
8.9362499,1144
8.9387499,1411
8.941249899999999,1782
8.9437499,1932
8.9462499,1720
8.9487499,1351
8.9512499,1132
8.9537499,1235
8.9562499,1606
8.958749899999999,2001
8.9612499,2122
8.9637499,1940
8.9662499,1727
8.968749899999999,1743
8.9712499,2051
8.9737499,2521
8.9762499,2811
8.9787499,2642
8.9812499,2143
8.9837499,1653
8.986249899999999,1403
8.9887499,1450
8.9912499,1632
8.9937499,1645
8.9962499,1379
8.9987499,1039
9.0012499,862
9.003749899999999,997
9.0062499,1388
9.0087499,1743
9.0112499,1786
9.0137499,1513
9.0162499,1173
9.0187499,1047
9.021249899999999,1232
9.0237499,1600
9.0262499,1851
9.0287499,1759
9.031249899999999,1411
9.0337499,1113
9.0362499,1097
9.0387499,1361
9.0412499,1720
9.0437499,1865
9.0462499,1648
9.048749899999999,1281
9.0512499,1066
9.0537499,1140
9.0562499,1475
9.0587499,1807
9.0612499,1833
9.0637499,1556
9.066249899999999,1219
9.0687499,1087
9.0712499,1268
9.0737499,1650
9.0762499,1899
9.0787499,1788
9.0812499,1430
9.083749899999999,1127
9.0862499,1106
9.0887499,1400
9.0912499,1782
9.093749899999999,1944
9.0962499,1743
9.0987499,1364
9.1012499,1126
9.1037499,1197
9.1062499,1517
9.1087499,1840
9.111249899999999,1867
9.1137499,1563
9.1162499,1206
9.1187499,1089
9.1212499,1272
9.1237499,1661
9.1262499,1930
9.128749899999999,1815
9.1312499,1455
9.1337499,1147
9.1362499,1115
9.1387499,1382
9.1412499,1769
9.1437499,1925
9.146249899999999,1722
9.1487499,1371
9.1512499,1145
9.1537499,1229
9.156249899999999,1577
9.1587499,1907
9.1612499,1935
9.1637499,1646
9.1662499,1293
9.1687499,1169
9.1712499,1358
9.173749899999999,1727
9.1762499,1986
9.1787499,1888
9.1812499,1538
9.1837499,1235
9.1862499,1214
9.1887499,1479
9.191249899999999,1849
9.1937499,2009
9.1962499,1803
9.1987499,1446
9.2012499,1226
9.2037499,1295
9.2062499,1633
9.208749899999999,1964
9.2112499,1973
9.2137499,1666
9.2162499,1310
9.218749899999999,1163
9.2212499,1342
9.2237499,1714
9.2262499,1962
9.2287499,1861
9.2312499,1514
9.2337499,1202
9.236249899999999,1165
9.2387499,1414
9.2412499,1749
9.2437499,1865
9.2462499,1637
9.2487499,1255
9.2512499,1032
9.253749899999999,1105
9.2562499,1419
9.2587499,1730
9.2612499,1751
9.2637499,1450
9.2662499,1095
9.2687499,965
9.271249899999999,1142
9.2737499,1516
9.2762499,1767
9.2787499,1661
9.281249899999999,1311
9.2837499,1010
9.2862499,974
9.2887499,1235
9.2912499,1598
9.2937499,1737
9.2962499,1527
9.298749899999999,1169
9.3012499,947
9.3037499,1037
9.3062499,1374
9.3087499,1685
9.3112499,1696
9.3137499,1398
9.316249899999999,1050
9.3187499,932
9.3212499,1118
9.3237499,1484
9.3262499,1733
9.3287499,1632
9.3312499,1279
9.333749899999999,982
9.3362499,957
9.3387499,1221
9.3412499,1590
9.343749899999999,1733
9.3462499,1516
9.3487499,1150
9.3512499,932
9.3537499,999
9.3562499,1339
9.3587499,1667
9.361249899999999,1682
9.3637499,1388
9.3662499,1040
9.3687499,910
9.3712499,1098
9.3737499,1464
9.3762499,1690
9.378749899999999,1553
9.3812499,1184
9.3837499,895
9.3862499,894
9.3887499,1179
9.3912499,1559
9.3937499,1719
9.396249899999999,1506
9.3987499,1131
9.4012499,910
9.4037499,986
9.406249899999999,1308
9.4087499,1629
9.4112499,1643
9.4137499,1345
9.4162499,1016
9.4187499,899
9.4212499,1077
9.423749899999999,1440
9.4262499,1674
9.4287499,1556
9.4312499,1206
9.4337499,912
9.4362499,886
9.4387499,1165
9.441249899999999,1537
9.4437499,1674
9.4462499,1456
9.4487499,1086
9.4512499,870
9.4537499,960
9.4562499,1297
9.458749899999999,1614
9.4612499,1630
9.4637499,1322
9.4662499,971
9.468749899999999,857
9.4712499,1039
9.4737499,1409
9.4762499,1666
9.4787499,1564
9.4812499,1214
9.4837499,921
9.486249899999999,894
9.4887499,1158
9.4912499,1529
9.4937499,1661
9.4962499,1440
9.4987499,1081
9.5012499,862
9.503749899999999,947
9.5062499,1298
9.5087499,1627
9.5112499,1641
9.5137499,1337
9.5162499,978
9.5187499,857
9.521249899999999,1052
9.5237499,1427
9.5262499,1669
9.5287499,1566
9.531249899999999,1213
9.5337499,918
9.5362499,908
9.5387499,1181
9.5412499,1558
9.5437499,1704
9.5462499,1480
9.548749899999999,1123
9.5512499,928
9.5537499,1016
9.5562499,1347
9.5587499,1662
9.5612499,1666
9.5637499,1369
9.566249899999999,1053
9.5687499,945
9.5712499,1134
9.5737499,1496
9.5762499,1704
9.5787499,1561
9.5812499,1189
9.583749899999999,883
9.5862499,865
9.5887499,1152
9.5912499,1514
9.593749899999999,1650
9.5962499,1443
9.5987499,1079
9.6012499,866
9.6037499,961
9.6062499,1292
9.6087499,1596
9.611249899999999,1601
9.6137499,1289
9.6162499,950
9.6187499,847
9.6212499,1039
9.6237499,1413
9.6262499,1661
9.628749899999999,1543
9.6312499,1184
9.6337499,891
9.6362499,857
9.6387499,1110
9.6412499,1467
9.6437499,1596
9.646249899999999,1397
9.6487499,1094
9.6512499,961
9.6537499,1160
9.656249899999999,1632
9.6587499,2091
9.6612499,2246
9.6637499,2096
9.6662499,1873
9.6687499,1822
9.6712499,1994
9.673749899999999,2241
9.6762499,2289
9.6787499,1954
9.6812499,1361
9.6837499,837
9.6862499,639
9.6887499,794
9.691249899999999,1132
9.6937499,1303
9.6962499,1140
9.6987499,841
9.7012499,683
9.7037499,800
9.7062499,1179
9.708749899999999,1542
9.7112499,1563
9.7137499,1263
9.7162499,926
9.718749899999999,804
9.7212499,990
9.7237499,1376
9.7262499,1612
9.7287499,1495
9.7312499,1144
9.7337499,839
9.736249899999999,825
9.7387499,1115
9.7412499,1495
9.7437499,1640
9.7462499,1426
9.7487499,1058
9.7512499,849
9.753749899999999,947
9.7562499,1287
9.7587499,1609
9.7612499,1629
9.7637499,1322
9.7662499,982
9.7687499,868
9.771249899999999,1055
9.7737499,1434
9.7762499,1669
9.7787499,1538
9.781249899999999,1185
9.7837499,924
9.7862499,931
9.7887499,1223
9.7912499,1595
9.7937499,1714
9.7962499,1485
9.798749899999999,1123
9.8012499,905
9.8037499,1003
9.8062499,1361
9.8087499,1683
9.8112499,1683
9.8137499,1380
9.816249899999999,1042
9.8187499,941
9.8212499,1148
9.8237499,1519
9.8262499,1756
9.8287499,1641
9.8312499,1276
9.833749899999999,986
9.8362499,1002
9.8387499,1308
9.8412499,1685
9.843749899999999,1803
9.8462499,1572
9.8487499,1213
9.8512499,1023
9.8537499,1119
9.8562499,1467
9.8587499,1791
9.861249899999999,1804
9.8637499,1511
9.8662499,1177
9.8687499,1060
9.8712499,1255
9.8737499,1643
9.8762499,1888
9.878749899999999,1780
9.8812499,1442
9.8837499,1163
9.8862499,1168
9.8887499,1453
9.8912499,1799
9.8937499,1923
9.896249899999999,1699
9.8987499,1330
9.9012499,1127
9.9037499,1231
9.906249899999999,1572
9.9087499,1885
9.9112499,1886
9.9137499,1577
9.9162499,1243
9.9187499,1144
9.9212499,1330
9.923749899999999,1695
9.9262499,1920
9.9287499,1774
9.9312499,1405
9.9337499,1100
9.9362499,1068
9.9387499,1329
9.941249899999999,1675
9.9437499,1783
9.9462499,1551
9.9487499,1184
9.9512499,961
9.9537499,1057
9.9562499,1406
9.958749899999999,1708
9.9612499,1698
9.9637499,1393
9.9662499,1063
9.968749899999999,947
9.9712499,1124
9.9737499,1488
9.9762499,1727
9.9787499,1611
9.9812499,1256
9.9837499,982
9.986249899999999,984
9.9887499,1266
9.9912499,1640
9.9937499,1767
9.9962499,1527
9.9987499,1156
10.0012499,945
10.003749899999999,1032
10.0062499,1385
10.0087499,1708
10.0112499,1706
10.0137499,1401
10.0162499,1063
10.0187499,945
10.021249899999999,1135
10.0237499,1504
10.0262499,1740
10.0287499,1635
10.031249899999999,1287
10.0337499,994
10.0362499,989
10.0387499,1269
10.0412499,1627
10.0437499,1762
10.0462499,1558
10.048749899999999,1202
10.0512499,1007
10.0537499,1103
10.0562499,1435
10.0587499,1741
10.0612499,1728
10.0637499,1406
10.066249899999999,1069
10.0687499,966
10.0712499,1171
10.0737499,1559
10.0762499,1795
10.0787499,1662
10.0812499,1308
10.083749899999999,1016
10.0862499,999
10.0887499,1274
10.0912499,1627
10.093749899999999,1746
10.0962499,1535
10.0987499,1184
10.1012499,989
10.1037499,1103
10.1062499,1450
10.1087499,1759
10.111249899999999,1754
10.1137499,1438
10.1162499,1092
10.1187499,982
10.1212499,1169
10.1237499,1532
10.1262499,1774
10.128749899999999,1653
10.1312499,1310
10.1337499,1042
10.1362499,1042
10.1387499,1322
10.1412499,1688
10.1437499,1804
10.146249899999999,1567
10.1487499,1205
10.1512499,995
10.1537499,1102
10.156249899999999,1463
10.1587499,1778
10.1612499,1772
10.1637499,1467
10.1662499,1126
10.1687499,1010
10.1712499,1211
10.173749899999999,1577
10.1762499,1799
10.1787499,1675
10.1812499,1316
10.1837499,1031
10.1862499,1037
10.1887499,1316
10.191249899999999,1670
10.1937499,1801
10.1962499,1575
10.1987499,1206
10.2012499,1018
10.2037499,1121
10.2062499,1467
10.208749899999999,1783
10.2112499,1772
10.2137499,1459
10.2162499,1129
10.218749899999999,1024
10.2212499,1234
10.2237499,1627
10.2262499,1859
10.2287499,1730
10.2312499,1384
10.2337499,1100
10.236249899999999,1097
10.2387499,1390
10.2412499,1743
10.2437499,1856
10.2462499,1630
10.2487499,1274
10.2512499,1086
10.253749899999999,1206
10.2562499,1556
10.2587499,1867
10.2612499,1862
10.2637499,1543
10.2662499,1206
10.2687499,1118
10.271249899999999,1319
10.2737499,1687
10.2762499,1914
10.2787499,1761
10.281249899999999,1384
10.2837499,1092
10.2862499,1077
10.2887499,1356
10.2912499,1746
10.2937499,1835
10.2962499,1585
10.298749899999999,1229
10.3012499,1045
10.3037499,1129
10.3062499,1472
10.3087499,1778
10.3112499,1770
10.3137499,1472
10.316249899999999,1142
10.3187499,1048
10.3212499,1258
10.3237499,1622
10.3262499,1844
10.3287499,1716
10.3312499,1355
10.333749899999999,1074
10.3362499,1084
10.3387499,1368
10.3412499,1720
10.343749899999999,1836
10.3462499,1595
10.3487499,1227
10.3512499,1034
10.3537499,1165
10.3562499,1579
10.3587499,1994
10.361249899999999,2107
10.3637499,1949
10.3662499,1790
10.3687499,1859
10.3712499,2223
10.3737499,2713
10.3762499,2961
10.378749899999999,2744
10.3812499,2212
10.3837499,1682
10.3862499,1416
10.3887499,1440
10.3912499,1551
10.3937499,1508
10.396249899999999,1211
10.3987499,871
10.4012499,755
10.4037499,952
10.406249899999999,1368
10.4087499,1720
10.4112499,1740
10.4137499,1432
10.4162499,1106
10.4187499,1016
10.4212499,1226
10.423749899999999,1609
10.4262499,1841
10.4287499,1704
10.4312499,1358
10.4337499,1092
10.4362499,1092
10.4387499,1380
10.441249899999999,1748
10.4437499,1859
10.4462499,1625
10.4487499,1271
10.4512499,1068
10.4537499,1181
10.4562499,1540
10.458749899999999,1846
10.4612499,1833
10.4637499,1532
10.4662499,1195
10.468749899999999,1103
10.4712499,1319
10.4737499,1691
10.4762499,1914
10.4787499,1791
10.4812499,1445
10.4837499,1177
10.486249899999999,1197
10.4887499,1485
10.4912499,1841
10.4937499,1959
10.4962499,1719
10.4987499,1361
10.5012499,1182
10.503749899999999,1301
10.5062499,1658
10.5087499,1973
10.5112499,1946
10.5137499,1632
10.5162499,1298
10.5187499,1200
10.521249899999999,1411
10.5237499,1795
10.5262499,2017
10.5287499,1888
10.531249899999999,1546
10.5337499,1264
10.5362499,1282
10.5387499,1590
10.5412499,1961
10.5437499,2081
10.5462499,1848
10.548749899999999,1475
10.5512499,1279
10.5537499,1400
10.5562499,1756
10.5587499,2077
10.5612499,2078
10.5637499,1769
10.566249899999999,1432
10.5687499,1342
10.5712499,1551
10.5737499,1935
10.5762499,2173
10.5787499,2039
10.5812499,1693
10.583749899999999,1432
10.5862499,1455
10.5887499,1767
10.5912499,2146
10.593749899999999,2242
10.5962499,1980
10.5987499,1604
10.6012499,1397
10.6037499,1514
10.6062499,1880
10.6087499,2196
10.611249899999999,2189
10.6137499,1880
10.6162499,1543
10.6187499,1446
10.6212499,1658
10.6237499,2028
10.6262499,2246
10.628749899999999,2104
10.6312499,1728
10.6337499,1438
10.6362499,1437
10.6387499,1711
10.6412499,2065
10.6437499,2157
10.646249899999999,1891
10.6487499,1513
10.6512499,1300
10.6537499,1398
10.656249899999999,1741
10.6587499,2046
10.6612499,2017
10.6637499,1696
10.6662499,1358
10.6687499,1253
10.6712499,1456
10.673749899999999,1824
10.6762499,2035
10.6787499,1901
10.6812499,1548
10.6837499,1271
10.6862499,1281
10.6887499,1569
10.691249899999999,1920
10.6937499,2031
10.6962499,1796
10.6987499,1434
10.7012499,1243
10.7037499,1351
10.7062499,1693
10.708749899999999,1999
10.7112499,1981
10.7137499,1670
10.7162499,1350
10.718749899999999,1269
10.7212499,1482
10.7237499,1853
10.7262499,2067
10.7287499,1922
10.7312499,1569
10.7337499,1298
10.736249899999999,1308
10.7387499,1596
10.7412499,1952
10.7437499,2064
10.7462499,1836
10.7487499,1463
10.7512499,1292
10.753749899999999,1426
10.7562499,1751
10.7587499,2052
10.7612499,2038
10.7637499,1717
10.7662499,1379
10.7687499,1289
10.771249899999999,1503
10.7737499,1872
10.7762499,2094
10.7787499,1957
10.781249899999999,1604
10.7837499,1332
10.7862499,1339
10.7887499,1621
10.7912499,1977
10.7937499,2080
10.7962499,1833
10.798749899999999,1480
10.8012499,1292
10.8037499,1408
10.8062499,1767
10.8087499,2072
10.8112499,2041
10.8137499,1730
10.816249899999999,1411
10.8187499,1326
10.8212499,1550
10.8237499,1920
10.8262499,2133
10.8287499,1991
10.8312499,1632
10.833749899999999,1343
10.8362499,1347
10.8387499,1629
10.8412499,1975
10.843749899999999,2085
10.8462499,1848
10.8487499,1496
10.8512499,1319
10.8537499,1443
10.8562499,1796
10.8587499,2107
10.861249899999999,2080
10.8637499,1759
10.8662499,1432
10.8687499,1330
10.8712499,1538
10.8737499,1922
10.8762499,2146
10.878749899999999,2009
10.8812499,1664
10.8837499,1393
10.8862499,1397
10.8887499,1690
10.8912499,2039
10.8937499,2133
10.896249899999999,1888
10.8987499,1527
10.9012499,1337
10.9037499,1463
10.906249899999999,1817
10.9087499,2123
10.9112499,2112
10.9137499,1795
10.9162499,1471
10.9187499,1392
10.9212499,1616
10.923749899999999,1993
10.9262499,2217
10.9287499,2060
10.9312499,1691
10.9337499,1434
10.9362499,1451
10.9387499,1746
10.941249899999999,2109
10.9437499,2207
10.9462499,1965
10.9487499,1619
10.9512499,1427
10.9537499,1554
10.9562499,1922
10.958749899999999,2228
10.9612499,2204
10.9637499,1890
10.9662499,1546
10.968749899999999,1432
10.9712499,1627
10.9737499,1980
10.9762499,2184
10.9787499,2041
10.9812499,1672
10.9837499,1395
10.986249899999999,1421
10.9887499,1714
10.9912499,2077
10.9937499,2183
10.9962499,1923
10.9987499,1554
11.0012499,1369
11.003749899999999,1480
11.0062499,1830
11.0087499,2144
11.0112499,2117
11.0137499,1786
11.0162499,1466
11.0187499,1382
11.021249899999999,1592
11.0237499,1972
11.0262499,2188
11.0287499,2038
11.031249899999999,1680
11.0337499,1398
11.0362499,1405
11.0387499,1698
11.0412499,2060
11.0437499,2201
11.0462499,2039
11.048749899999999,1780
11.0512499,1730
11.0537499,2014
11.0562499,2520
11.0587499,2969
11.0612499,3079
11.0637499,2819
11.066249899999999,2439
11.0687499,2207
11.0712499,2210
11.0737499,2355
11.0762499,2338
11.0787499,1943
11.0812499,1395
11.083749899999999,1032
11.0862499,1036
11.0887499,1376
11.0912499,1804
11.093749899999999,1972
11.0962499,1783
11.0987499,1466
11.1012499,1293
11.1037499,1434
11.1062499,1806
11.1087499,2107
11.111249899999999,2081
11.1137499,1769
11.1162499,1435
11.1187499,1351
11.1212499,1580
11.1237499,1951
11.1262499,2168
11.128749899999999,2028
11.1312499,1674
11.1337499,1413
11.1362499,1438
11.1387499,1719
11.1412499,2064
11.1437499,2164
11.146249899999999,1914
11.1487499,1561
11.1512499,1384
11.1537499,1498
11.156249899999999,1853
11.1587499,2160
11.1612499,2126
11.1637499,1811
11.1662499,1493
11.1687499,1405
11.1712499,1622
11.173749899999999,1996
11.1762499,2196
11.1787499,2046
11.1812499,1703
11.1837499,1446
11.1862499,1480
11.1887499,1791
11.191249899999999,2139
11.1937499,2223
11.1962499,1967
11.1987499,1600
11.2012499,1411
11.2037499,1567
11.2062499,1936
11.208749899999999,2225
11.2112499,2184
11.2137499,1859
11.2162499,1537
11.218749899999999,1461
11.2212499,1672
11.2237499,2041
11.2262499,2257
11.2287499,2114
11.2312499,1772
11.2337499,1514
11.236249899999999,1529
11.2387499,1827
11.2412499,2191
11.2437499,2289
11.2462499,2051
11.2487499,1703
11.2512499,1521
11.253749899999999,1648
11.2562499,2012
11.2587499,2313
11.2612499,2288
11.2637499,1975
11.2662499,1646
11.2687499,1574
11.271249899999999,1803
11.2737499,2180
11.2762499,2399
11.2787499,2255
11.281249899999999,1901
11.2837499,1641
11.2862499,1656
11.2887499,1943
11.2912499,2294
11.2937499,2389
11.2962499,2135
11.298749899999999,1778
11.3012499,1604
11.3037499,1728
11.3062499,2083
11.3087499,2381
11.3112499,2338
11.3137499,2010
11.316249899999999,1677
11.3187499,1580
11.3212499,1785
11.3237499,2149
11.3262499,2338
11.3287499,2168
11.3312499,1793
11.333749899999999,1503
11.3362499,1521
11.3387499,1828
11.3412499,2170
11.343749899999999,2247
11.3462499,1977
11.3487499,1595
11.3512499,1395
11.3537499,1509
11.3562499,1861
11.3587499,2167
11.361249899999999,2133
11.3637499,1799
11.3662499,1467
11.3687499,1379
11.3712499,1587
11.3737499,1962
11.3762499,2162
11.378749899999999,2004
11.3812499,1654
11.3837499,1397
11.3862499,1414
11.3887499,1711
11.3912499,2059
11.3937499,2147
11.396249899999999,1904
11.3987499,1556
11.4012499,1372
11.4037499,1498
11.406249899999999,1853
11.4087499,2144
11.4112499,2123
11.4137499,1801
11.4162499,1466
11.4187499,1387
11.4212499,1600
11.423749899999999,1957
11.4262499,2160
11.4287499,2012
11.4312499,1664
11.4337499,1424
11.4362499,1451
11.4387499,1743
11.441249899999999,2099
11.4437499,2189
11.4462499,1935
11.4487499,1590
11.4512499,1408
11.4537499,1522
11.4562499,1865
11.458749899999999,2143
11.4612499,2099
11.4637499,1793
11.4662499,1475
11.468749899999999,1395
11.4712499,1622
11.4737499,1991
11.4762499,2193
11.4787499,2041
11.4812499,1677
11.4837499,1398
11.486249899999999,1424
11.4887499,1725
11.4912499,2089
11.4937499,2189
11.4962499,1933
11.4987499,1563
11.5012499,1376
11.503749899999999,1493
11.5062499,1840
11.5087499,2139
11.5112499,2106
11.5137499,1786
11.5162499,1474
11.5187499,1398
11.521249899999999,1612
11.5237499,1980
11.5262499,2170
11.5287499,1996
11.531249899999999,1641
11.5337499,1377
11.5362499,1413
11.5387499,1733
11.5412499,2094
11.5437499,2175
11.5462499,1925
11.548749899999999,1569
11.5512499,1385
11.5537499,1524
11.5562499,1882
11.5587499,2173
11.5612499,2143
11.5637499,1812
11.566249899999999,1480
11.5687499,1403
11.5712499,1622
11.5737499,1990
11.5762499,2202
11.5787499,2049
11.5812499,1693
11.583749899999999,1446
11.5862499,1475
11.5887499,1777
11.5912499,2139
11.593749899999999,2223
11.5962499,1965
11.5987499,1614
11.6012499,1430
11.6037499,1561
11.6062499,1930
11.6087499,2230
11.611249899999999,2199
11.6137499,1883
11.6162499,1551
11.6187499,1463
11.6212499,1677
11.6237499,2033
11.6262499,2218
11.628749899999999,2051
11.6312499,1675
11.6337499,1405
11.6362499,1437
11.6387499,1732
11.6412499,2075
11.6437499,2164
11.646249899999999,1906
11.6487499,1545
11.6512499,1371
11.6537499,1490
11.656249899999999,1862
11.6587499,2149
11.6612499,2086
11.6637499,1754
11.6662499,1467
11.6687499,1380
11.6712499,1592
11.673749899999999,1964
11.6762499,2167
11.6787499,2017
11.6812499,1674
11.6837499,1401
11.6862499,1414
11.6887499,1712
11.691249899999999,2052
11.6937499,2139
11.6962499,1914
11.6987499,1596
11.7012499,1487
11.7037499,1720
11.7062499,2199
11.708749899999999,2636
11.7112499,2779
11.7137499,2639
11.7162499,2471
11.718749899999999,2473
11.7212499,2639
11.7237499,2848
11.7262499,2837
11.7287499,2433
11.7312499,1817
11.7337499,1314
11.736249899999999,1152
11.7387499,1356
11.7412499,1690
11.7437499,1811
11.7462499,1630
11.7487499,1351
11.7512499,1224
11.753749899999999,1385
11.7562499,1767
11.7587499,2065
11.7612499,2028
11.7637499,1716
11.7662499,1392
11.7687499,1326
11.771249899999999,1567
11.7737499,1946
11.7762499,2154
11.7787499,1998
11.781249899999999,1622
11.7837499,1345
11.7862499,1384
11.7887499,1691
11.7912499,2051
11.7937499,2143
11.7962499,1883
11.798749899999999,1529
11.8012499,1359
11.8037499,1490
11.8062499,1854
11.8087499,2159
11.8112499,2104
11.8137499,1757
11.816249899999999,1429
11.8187499,1363
11.8212499,1609
11.8237499,2007
11.8262499,2210
11.8287499,2048
11.8312499,1685
11.833749899999999,1416
11.8362499,1445
11.8387499,1756
11.8412499,2107
11.843749899999999,2191
11.8462499,1936
11.8487499,1574
11.8512499,1395
11.8537499,1525
11.8562499,1869
11.8587499,2160
11.861249899999999,2135
11.8637499,1814
11.8662499,1503
11.8687499,1448
11.8712499,1680
11.8737499,2060
11.8762499,2265
11.878749899999999,2094
11.8812499,1733
11.8837499,1479
11.8862499,1506
11.8887499,1809
11.8912499,2162
11.8937499,2239
11.896249899999999,1991
11.8987499,1648
11.9012499,1479
11.9037499,1616
11.906249899999999,1981
11.9087499,2276
11.9112499,2247
11.9137499,1933
11.9162499,1612
11.9187499,1546
11.9212499,1783
11.923749899999999,2160
11.9262499,2368
11.9287499,2210
11.9312499,1848
11.9337499,1601
11.9362499,1635
11.9387499,1935
11.941249899999999,2288
11.9437499,2367
11.9462499,2094
11.9487499,1737
11.9512499,1572
11.9537499,1699
11.9562499,2070
11.958749899999999,2370
11.9612499,2321
11.9637499,1991
11.9662499,1654
11.9687499,1553
11.9712499,1770
11.9737499,2144
11.9762499,2331
11.9787499,2159
11.9812499,1782
11.9837499,1495
11.986249899999999,1504
11.9887499,1795
11.9912499,2128
11.9937499,2201
11.9962499,1936
11.9987499,1567
12.0012499,1384
12.003749899999999,1504
12.0062499,1844
12.0087499,2125
12.0112499,2083
12.0137499,1756
12.0162499,1430
12.0187499,1348
12.021249899999999,1563
12.0237499,1933
12.0262499,2126
12.0287499,1964
12.0312499,1609
12.0337499,1356
12.0362499,1384
12.0387499,1687
12.0412499,2028
12.0437499,2097
12.0462499,1836
12.048749899999999,1487
12.0512499,1318
12.0537499,1461
12.0562499,1830
12.0587499,2122
12.0612499,2078
12.0637499,1737
12.066249899999999,1405
12.0687499,1337
12.0712499,1567
12.0737499,1938
12.0762499,2136
12.0787499,1969
12.0812499,1603
12.083749899999999,1342
12.0862499,1363
12.0887499,1651
12.0912499,2006
12.0937499,2089
12.0962499,1836
12.0987499,1503
12.1012499,1339
12.1037499,1469
12.1062499,1820
12.1087499,2097
12.111249899999999,2041
12.1137499,1714
12.1162499,1387
12.1187499,1319
12.1212499,1575
12.1237499,1941
12.1262499,2102
12.128749899999999,1933
12.1312499,1569
12.1337499,1319
12.1362499,1368
12.1387499,1675
12.1412499,2017
12.1437499,2096
12.146249899999999,1812
12.1487499,1429
12.1512499,1248
12.1537499,1376
12.1562499,1740
12.1587499,2049
12.1612499,2006
12.1637499,1674
12.1662499,1351
12.1687499,1269
12.1712499,1490
12.173749899999999,1865
12.1762499,2062
12.1787499,1906
12.1812499,1563
12.1837499,1303
12.1862499,1326
12.1887499,1619
12.191249899999999,1946
12.1937499,2009
12.1962499,1746
12.1987499,1387
12.2012499,1211
12.2037499,1355
12.2062499,1711
12.208749899999999,1994
12.2112499,1954
12.2137499,1633
12.2162499,1308
12.2187499,1243
12.2212499,1467
12.2237499,1825
12.2262499,2017
12.2287499,1841
12.2312499,1475
12.2337499,1219
12.236249899999999,1248
12.2387499,1559
12.2412499,1915
12.2437499,1993
12.2462499,1727
12.2487499,1382
12.2512499,1218
12.253749899999999,1351
12.2562499,1708
12.2587499,1978
12.2612499,1915
12.2637499,1593
12.2662499,1271
12.2687499,1213
12.271249899999999,1463
12.2737499,1838
12.2762499,2035
12.2787499,1877
12.2812499,1511
12.2837499,1245
12.2862499,1276
12.2887499,1564
12.2912499,1886
12.2937499,1954
12.2962499,1675
12.298749899999999,1300
12.3012499,1124
12.3037499,1253
12.3062499,1600
12.3087499,1878
12.3112499,1807
12.3137499,1467
12.316249899999999,1152
12.3187499,1086
12.3212499,1321
12.3237499,1699
12.3262499,1873
12.3287499,1680
12.3312499,1313
12.333749899999999,1048
12.3362499,1084
12.3387499,1408
12.3412499,1757
12.3437499,1830
12.3462499,1567
12.3487499,1197
12.3512499,1019
12.3537499,1152
12.3562499,1490
12.3587499,1756
12.361249899999999,1708
12.3637499,1393
12.3662499,1118
12.3687499,1132
12.3712499,1461
12.3737499,1954
12.3762499,2305
12.378749899999999,2304
12.3812499,2107
12.3837499,1994
12.3862499,2088
12.3887499,2341
12.3912499,2539
12.3937499,2396
12.396249899999999,1890
12.3987499,1282
12.4012499,854
12.4037499,784
12.4062499,1057
12.4087499,1342
12.4112499,1335
12.4137499,1074
12.4162499,807
12.4187499,778
12.4212499,1039
12.423749899999999,1419
12.4262499,1619
12.4287499,1467
12.4312499,1103
12.4337499,847
12.4362499,889
12.4387499,1185
12.441249899999999,1527
12.4437499,1609
12.4462499,1347
12.4487499,989
12.4512499,823
12.4537499,952
12.4562499,1311
12.458749899999999,1603
12.4612499,1540
12.4637499,1195
12.4662499,883
12.4687499,813
12.4712499,1044
12.4737499,1414
12.4762499,1601
12.4787499,1430
12.4812499,1077
12.4837499,833
12.486249899999999,871
12.4887499,1184
12.4912499,1516
12.4937499,1580
12.4962499,1314
12.4987499,949
12.5012499,775
12.503749899999999,907
12.5062499,1260
12.5087499,1545
12.5112499,1495
12.5137499,1158
12.5162499,839
12.5187499,776
12.521249899999999,999
12.5237499,1366
12.5262499,1558
12.5287499,1380
12.5312499,1021
12.5337499,771
12.5362499,802
12.5387499,1111
12.5412499,1463
12.5437499,1527
12.5462499,1258
12.548749899999999,905
12.5512499,737
12.5537499,879
12.5562499,1252
12.5587499,1535
12.5612499,1484
12.5637499,1153
12.566249899999999,826
12.5687499,771
12.5712499,1019
12.5737499,1390
12.5762499,1579
12.5787499,1382
12.5812499,1002
12.583749899999999,765
12.5862499,813
12.5887499,1126
12.5912499,1484
12.5937499,1572
12.5962499,1311
12.5987499,965
12.6012499,808
12.6037499,944
12.6062499,1306
12.6087499,1588
12.611249899999999,1516
12.6137499,1177
12.6162499,852
12.6187499,776
12.6212499,1007
12.6237499,1387
12.6262499,1579
12.628749899999999,1414
12.6312499,1050
12.6337499,781
12.6362499,808
12.6387499,1108
12.6412499,1427
12.6437499,1484
12.646249899999999,1202
12.6487499,829
12.6512499,650
12.6537499,771
12.6562499,1103
12.6587499,1368
12.6612499,1293
12.6637499,950
12.6662499,634
12.6687499,565
12.6712499,783
12.673749899999999,1139
12.6762499,1316
12.6787499,1126
12.6812499,760
12.6837499,515
12.6862499,546
12.6887499,855
12.691249899999999,1194
12.6937499,1239
12.6962499,961
12.6987499,613
12.7012499,451
12.7037499,588
12.7062499,944
12.708749899999999,1218
12.7112499,1161
12.7137499,828
12.7162499,504
12.7187499,446
12.7212499,683
12.7237499,1057
12.7262499,1252
12.7287499,1071
12.7312499,700
12.7337499,452
12.736249899999999,493
12.7387499,792
12.7412499,1132
12.7437499,1194
12.7462499,918
12.7487499,572
12.7512499,414
12.753749899999999,547
12.7562499,905
12.7587499,1181
12.7612499,1123
12.7637499,800
12.7662499,486
12.7687499,418
12.771249899999999,652
12.7737499,1015
12.7762499,1197
12.7787499,1024
12.7812499,668
12.7837499,414
12.7862499,457
12.7887499,766
12.7912499,1108
12.7937499,1181
12.7962499,916
12.798749899999999,568
12.8012499,407
12.8037499,539
12.8062499,884
12.8087499,1161
12.8112499,1092
12.8137499,758
12.816249899999999,444
12.8187499,386
12.8212499,610
12.8237499,984
12.8262499,1179
12.8287499,1010
12.8312499,667
12.833749899999999,423
12.8362499,454
12.8387499,755
12.8412499,1084
12.8437499,1139
12.8462499,876
12.8487499,530
12.8512499,370
12.8537499,515
12.8562499,866
12.8587499,1137
12.861249899999999,1082
12.8637499,757
12.8662499,443
12.8687499,386
12.8712499,618
12.8737499,976
12.8762499,1158
12.878749899999999,976
12.8812499,610
12.8837499,377
12.8862499,423
12.8887499,734
12.8912499,1087
12.8937499,1150
12.896249899999999,874
12.8987499,525
12.9012499,360
12.9037499,499
12.9062499,865
12.9087499,1145
12.9112499,1081
12.9137499,757
12.9162499,441
12.9187499,378
12.9212499,621
12.923749899999999,990
12.9262499,1177
12.9287499,1005
12.9312499,647
12.9337499,404
12.9362499,457
12.9387499,773
12.941249899999999,1115
12.9437499,1182
12.9462499,912
12.9487499,563
12.9512499,420
12.9537499,568
12.9562499,923
12.958749899999999,1198
12.9612499,1129
12.9637499,805
12.9662499,510
12.9687499,456
12.9712499,696
12.9737499,1077
12.9762499,1266
12.9787499,1092
12.9812499,742
12.9837499,491
12.986249899999999,517
12.9887499,818
12.9912499,1142
12.9937499,1192
12.9962499,920
12.9987499,560
13.0012499,396
13.003749899999999,552
13.0062499,913
13.0087499,1187
13.0112499,1123
13.0137499,773
13.0162499,447
13.0187499,388
13.021249899999999,618
13.0237499,992
13.0262499,1200
13.0287499,1037
13.0312499,688
13.0337499,460
13.0362499,501
13.0387499,812
13.0412499,1174
13.0437499,1195
13.0462499,897
13.048749899999999,578
13.0512499,415
13.0537499,551
13.0562499,903
13.0587499,1165
13.0612499,1100
13.0637499,799
13.066249899999999,530
13.0687499,546
13.0712499,892
13.0737499,1380
13.0762499,1716
13.0787499,1722
13.0812499,1538
13.083749899999999,1443
13.0862499,1587
13.0887499,1877
13.0912499,2083
13.0937499,1946
13.0962499,1435
13.0987499,842
13.1012499,457
13.1037499,396
13.1062499,631
13.1087499,876
13.111249899999999,831
13.1137499,565
13.1162499,341
13.1187499,344
13.1212499,621
13.1237499,1018
13.1262499,1202
13.128749899999999,1023
13.1312499,679
13.1337499,443
13.1362499,504
13.1387499,837
13.1412499,1185
13.1437499,1247
13.146249899999999,984
13.1487499,631
13.1512499,481
13.1537499,636
13.1562499,994
13.1587499,1276
13.1612499,1227
13.1637499,897
13.1662499,592
13.1687499,547
13.1712499,781
13.173749899999999,1148
13.1762499,1335
13.1787499,1150
13.1812499,792
13.1837499,562
13.1862499,607
13.1887499,924
13.191249899999999,1279
13.1937499,1334
13.1962499,1058
13.1987499,726
13.2012499,578
13.2037499,729
13.2062499,1097
13.208749899999999,1366
13.2112499,1290
13.2137499,960
13.2162499,662
13.2187499,633
13.2212499,895
13.2237499,1268
13.2262499,1440
13.2287499,1261
13.2312499,897
13.2337499,660
13.236249899999999,721
13.2387499,1039
13.2412499,1379
13.2437499,1437
13.2462499,1156
13.2487499,816
13.2512499,679
13.253749899999999,833
13.2562499,1205
13.2587499,1493
13.2612499,1432
13.2637499,1111
13.2662499,825
13.2687499,789
13.271249899999999,1047
13.2737499,1427
13.2762499,1596
13.2787499,1409
13.2812499,1055
13.2837499,820
13.2862499,883
13.2887499,1214
13.2912499,1553
13.2937499,1619
13.2962499,1368
13.298749899999999,1039
13.3012499,903
13.3037499,1066
13.3062499,1421
13.3087499,1690
13.3112499,1622
13.3137499,1279
13.316249899999999,968
13.3187499,923
13.3212499,1171
13.3237499,1554
13.3262499,1740
13.3287499,1554
13.3312499,1189
13.333749899999999,950
13.3362499,1000
13.3387499,1322
13.3412499,1661
13.3437499,1699
13.3462499,1411
13.3487499,1047
13.3512499,876
13.3537499,1019
13.3562499,1379
13.3587499,1640
13.361249899999999,1564
13.3637499,1218
13.3662499,889
13.3687499,831
13.3712499,1076
13.3737499,1440
13.3762499,1617
13.378749899999999,1434
13.3812499,1066
13.3837499,826
13.3862499,878
13.3887499,1187
13.3912499,1517
13.3937499,1567
13.396249899999999,1287
13.3987499,952
13.4012499,818
13.4037499,973
13.4062499,1342
13.4087499,1612
13.4112499,1524
13.4137499,1190
13.4162499,892
13.4187499,847
13.4212499,1106
13.423749899999999,1487
13.4262499,1659
13.4287499,1475
13.4312499,1110
13.4337499,863
13.4362499,921
13.4387499,1248
13.441249899999999,1588
13.4437499,1648
13.4462499,1379
13.4487499,1032
13.4512499,897
13.4537499,1065
13.4562499,1429
13.458749899999999,1699
13.4612499,1621
13.4637499,1274
13.4662499,974
13.4687499,937
13.4712499,1190
13.4737499,1572
13.4762499,1743
13.4787499,1550
13.4812499,1187
13.4837499,952
13.486249899999999,1003
13.4887499,1324
13.4912499,1677
13.4937499,1745
13.4962499,1487
13.4987499,1140
13.5012499,984
13.503749899999999,1158
13.5062499,1521
13.5087499,1757
13.5112499,1693
13.5137499,1358
13.5162499,1044
13.5187499,1005
13.521249899999999,1263
13.5237499,1633
13.5262499,1809
13.5287499,1622
13.5312499,1256
13.5337499,1031
13.5362499,1098
13.5387499,1426
13.5412499,1770
13.5437499,1822
13.5462499,1542
13.548749899999999,1195
13.5512499,1050
13.5537499,1203
13.5562499,1579
13.5587499,1843
13.5612499,1762
13.5637499,1437
13.566249899999999,1139
13.5687499,1097
13.5712499,1348
13.5737499,1711
13.5762499,1882
13.5787499,1704
13.5812499,1342
13.583749899999999,1095
13.5862499,1152
13.5887499,1479
13.5912499,1815
13.5937499,1875
13.5962499,1604
13.5987499,1256
13.6012499,1124
13.6037499,1277
13.6062499,1619
13.6087499,1877
13.611249899999999,1791
13.6137499,1469
13.6162499,1197
13.6187499,1176
13.6212499,1438
13.6237499,1812
13.6262499,1975
13.628749899999999,1778
13.6312499,1417
13.6337499,1184
13.6362499,1248
13.6387499,1579
13.6412499,1902
13.6437499,1944
13.646249899999999,1674
13.6487499,1326
13.6512499,1185
13.6537499,1359
13.6562499,1728
13.6587499,1999
13.6612499,1928
13.6637499,1587
13.6662499,1274
13.6687499,1250
13.6712499,1506
13.673749899999999,1870
13.6762499,2044
13.6787499,1853
13.6812499,1492
13.6837499,1264
13.6862499,1327
13.6887499,1651
13.691249899999999,2002
13.6937499,2054
13.6962499,1778
13.6987499,1446
13.7012499,1306
13.7037499,1469
13.7062499,1843
13.708749899999999,2106
13.7112499,2025
13.7137499,1698
13.7162499,1397
13.7187499,1368
13.7212499,1643
13.7237499,2012
13.7262499,2176
13.7287499,1993
13.7312499,1629
13.7337499,1393
13.736249899999999,1474
13.7387499,1798
13.7412499,2131
13.7437499,2176
13.7462499,1883
13.7487499,1524
13.7512499,1374
13.753749899999999,1514
13.7562499,1861
13.7587499,2120
13.7612499,2039
13.7637499,1714
13.7662499,1430
13.7687499,1388
13.771249899999999,1640
13.7737499,2007
13.7762499,2162
13.7787499,1969
13.7812499,1617
13.7837499,1382
13.7862499,1443
13.7887499,1774
13.7912499,2094
13.7937499,2135
13.7962499,1861
13.798749899999999,1511
13.8012499,1377
13.8037499,1554
13.8062499,1912
13.8087499,2173
13.8112499,2094
13.8137499,1746
13.816249899999999,1442
13.8187499,1414
13.8212499,1683
13.8237499,2096
13.8262499,2341
13.8287499,2249
13.8312499,2023
13.833749899999999,1959
13.8362499,2196
13.8387499,2694
13.8412499,3166
13.8437499,3201
13.8462499,2939
13.8487499,2476
13.8512499,2110
13.8537499,2015
13.8562499,2125
13.8587499,2136
13.861249899999999,1870
13.8637499,1448
13.8662499,1131
13.8687499,1139
13.8712499,1464
13.8737499,1888
13.8762499,2099
13.878749899999999,1944
13.8812499,1604
13.8837499,1398
13.8862499,1500
13.8887499,1838
13.8912499,2181
13.8937499,2226
13.896249899999999,1941
13.8987499,1596
13.9012499,1459
13.9037499,1617
13.9062499,1986
13.9087499,2260
13.9112499,2183
13.9137499,1853
13.9162499,1553
13.9187499,1506
13.9212499,1770
13.923749899999999,2160
13.9262499,2333
13.9287499,2151
13.9312499,1798
13.9337499,1572
13.9362499,1640
13.9387499,1954
13.941249899999999,2265
13.9437499,2299
13.9462499,2019
13.9487499,1667
13.9512499,1533
13.9537499,1716
13.9562499,2118
13.958749899999999,2378
13.9612499,2284
13.9637499,1935
13.9662499,1661
13.9687499,1629
13.9712499,1893
13.9737499,2270
13.9762499,2426
13.9787499,2213
13.9812499,1853
13.9837499,1635
13.986249899999999,1701
13.9887499,2031
13.9912499,2375
13.9937499,2417
13.9962499,2143
13.9987499,1803
14.0012499,1656
14.003749899999999,1817
14.0062499,2189
14.0087499,2455
14.0112499,2383
14.0137499,2057
14.0162499,1757
14.0187499,1722
14.021249899999999,1993
14.0237499,2376
14.0262499,2558
14.0287499,2375
14.0312499,2009
14.0337499,1780
14.0362499,1848
14.0387499,2170
14.0412499,2505
14.0437499,2560
14.0462499,2291
14.048749899999999,1964
14.0512499,1838
14.0537499,2006
14.0562499,2388
14.0587499,2663
14.0612499,2579
14.0637499,2244
14.066249899999999,1943
14.0687499,1914
14.0712499,2186
14.0737499,2553
14.0762499,2710
14.0787499,2518
14.0812499,2152
14.083749899999999,1906
14.0862499,1967
14.0887499,2300
14.0912499,2634
14.0937499,2679
14.0962499,2407
14.0987499,2057
14.1012499,1907
14.1037499,2056
14.1062499,2396
14.1087499,2639
14.111249899999999,2545
14.1137499,2194
14.1162499,1880
14.1187499,1836
14.1212499,2080
14.1237499,2437
14.1262499,2589
14.128749899999999,2388
14.1312499,2027
14.1337499,1775
14.1362499,1817
14.1387499,2131
14.1412499,2455
14.1437499,2491
14.146249899999999,2212
14.1487499,1865
14.1512499,1720
14.1537499,1890
14.1562499,2257
14.1587499,2518
14.1612499,2434
14.1637499,2093
14.1662499,1783
14.1687499,1751
14.1712499,2001
14.173749899999999,2367
14.1762499,2531
14.1787499,2341
14.1812499,1981
14.1837499,1762
14.1862499,1832
14.1887499,2154
14.191249899999999,2486
14.1937499,2524
14.1962499,2239
14.1987499,1890
14.2012499,1740
14.2037499,1907
14.2062499,2296
14.208749899999999,2571
14.2112499,2491
14.2137499,2155
14.2162499,1844
14.2187499,1799
14.2212499,2054
14.2237499,2417
14.2262499,2574
14.2287499,2388
14.2312499,2023
14.2337499,1777
14.236249899999999,1846
14.2387499,2180
14.2412499,2515
14.2437499,2560
14.2462499,2275
14.2487499,1914
14.2512499,1777
14.253749899999999,1949
14.2562499,2320
14.2587499,2591
14.2612499,2510
14.2637499,2162
14.2662499,1851
14.2687499,1804
14.271249899999999,2048
14.2737499,2413
14.2762499,2576
14.2787499,2391
14.2812499,2051
14.2837499,1822
14.2862499,1888
14.2887499,2222
14.2912499,2545
14.2937499,2574
14.2962499,2296
14.298749899999999,1946
14.3012499,1801
14.3037499,1969
14.3062499,2328
14.3087499,2581
14.3112499,2505
14.3137499,2168
14.316249899999999,1859
14.3187499,1825
14.3212499,2081
14.3237499,2447
14.3262499,2616
14.3287499,2428
14.3312499,2070
14.333749899999999,1836
14.3362499,1885
14.3387499,2201
14.3412499,2542
14.3437499,2587
14.3462499,2309
14.3487499,1975
14.3512499,1840
14.3537499,2010
14.3562499,2376
14.3587499,2620
14.361249899999999,2513
14.3637499,2172
14.3662499,1875
14.3687499,1854
14.3712499,2126
14.3737499,2494
14.3762499,2652
14.378749899999999,2458
14.3812499,2085
14.3837499,1841
14.3862499,1902
14.3887499,2210
14.3912499,2534
14.3937499,2587
14.396249899999999,2307
14.3987499,1964
14.4012499,1833
14.4037499,1994
14.4062499,2352
14.4087499,2620
14.4112499,2541
14.4137499,2205
14.4162499,1911
14.4187499,1872
14.4212499,2149
14.423749899999999,2507
14.4262499,2626
14.4287499,2405
14.4312499,2075
14.4337499,1840
14.4362499,1902
14.4387499,2228
14.441249899999999,2544
14.4437499,2581
14.4462499,2325
14.4487499,1986
14.4512499,1846
14.4537499,2010
14.4562499,2359
14.458749899999999,2603
14.4612499,2520
14.4637499,2181
14.4662499,1883
14.4687499,1849
14.4712499,2097
14.4737499,2468
14.4762499,2636
14.4787499,2437
14.4812499,2078
14.4837499,1853
14.486249899999999,1912
14.4887499,2230
14.4912499,2570
14.4937499,2608
14.4962499,2336
14.4987499,2006
14.5012499,1867
14.503749899999999,2033
14.5062499,2405
14.5087499,2668
14.5112499,2589
14.5137499,2257
14.5162499,1940
14.5187499,1893
14.521249899999999,2159
14.5237499,2524
14.5262499,2681
14.5287499,2492
14.5312499,2133
14.5337499,1907
14.5362499,1981
14.5387499,2307
14.5412499,2628
14.5437499,2645
14.5462499,2325
14.548749899999999,1977
14.5512499,1848
14.5537499,2007
14.5562499,2365
14.5587499,2623
14.5612499,2523
14.5637499,2173
14.566249899999999,1870
14.5687499,1833
14.5712499,2102
14.5737499,2478
14.5762499,2624
14.5787499,2420
14.5812499,2064
14.583749899999999,1825
14.5862499,1888
14.5887499,2212
14.5912499,2533
14.5937499,2571
14.5962499,2292
14.5987499,1935
14.6012499,1790
14.6037499,1962
14.6062499,2323
14.6087499,2579
14.611249899999999,2494
14.6137499,2144
14.6162499,1844
14.6187499,1828
14.6212499,2118
14.6237499,2553
14.6262499,2818
14.628749899999999,2750
14.6312499,2555
14.6337499,2508
14.6362499,2755
14.6387499,3200
14.6412499,3227
14.6437499,3221
14.646249899999999,3135
14.6487499,2784
14.6512499,2447
14.6537499,2317
14.6562499,2354
14.6587499,2341
14.6612499,2110
14.6637499,1745
14.6662499,1493
14.6687499,1545
14.6712499,1883
14.673749899999999,2297
14.6762499,2481
14.6787499,2294
14.6812499,1933
14.6837499,1711
14.6862499,1795
14.6887499,2133
14.691249899999999,2479
14.6937499,2524
14.6962499,2238
14.6987499,1893
14.7012499,1761
14.7037499,1925
14.7062499,2294
14.708749899999999,2552
14.7112499,2462
14.7137499,2125
14.7162499,1828
14.7187499,1795
14.7212499,2056
14.7237499,2418
14.7262499,2557
14.7287499,2347
14.7312499,1975
14.7337499,1741
14.736249899999999,1843
14.7387499,2201
14.7412499,2539
14.7437499,2576
14.7462499,2286
14.7487499,1928
14.7512499,1788
14.753749899999999,1954
14.7562499,2312
14.7587499,2568
14.7612499,2476
14.7637499,2128
14.7662499,1833
14.7687499,1811
14.771249899999999,2073
14.7737499,2439
14.7762499,2581
14.7787499,2384
14.7812499,2036
14.7837499,1812
14.7862499,1886
14.7887499,2226
14.7912499,2553
14.7937499,2579
14.7962499,2292
14.798749899999999,1948
14.8012499,1812
14.8037499,1993
14.8062499,2365
14.8087499,2620
14.8112499,2537
14.8137499,2202
14.816249899999999,1901
14.8187499,1875
14.8212499,2141
14.8237499,2508
14.8262499,2661
14.8287499,2465
14.8312499,2102
14.833749899999999,1886
14.8362499,1967
14.8387499,2297
14.8412499,2632
14.8437499,2671
14.8462499,2391
14.8487499,2054
14.8512499,1922
14.8537499,2093
14.8562499,2470
14.8587499,2726
14.861249899999999,2629
14.8637499,2292
14.8662499,1993
14.8687499,1964
14.8712499,2230
14.8737499,2586
14.8762499,2723
14.878749899999999,2500
14.8812499,2143
14.8837499,1932
14.8862499,2027
14.8887499,2331
14.8912499,2644
14.8937499,2668
14.896249899999999,2373
14.8987499,2019
14.9012499,1883
14.9037499,2041
14.9062499,2392
14.9087499,2629
14.9112499,2505
14.9137499,2138
14.9162499,1824
14.9187499,1778
14.9212499,2027
14.923749899999999,2391
14.9262499,2528
14.9287499,2307
14.9312499,1940
14.9337499,1701
14.9362499,1756
14.9387499,2080
14.941249899999999,2397
14.9437499,2421
14.9462499,2136
14.9487499,1783
14.9512499,1641
14.9537499,1815
14.9562499,2175
14.958749899999999,2423
14.9612499,2333
14.9637499,1983
14.9662499,1679
14.9687499,1650
14.9712499,1904
14.9737499,2251
14.9762499,2408
14.9787499,2205
14.9812499,1841
14.9837499,1625
14.986249899999999,1695
14.9887499,2017
14.9912499,2344
14.9937499,2367
14.9962499,2077
14.9987499,1738
15.0012499,1608
15.003749899999999,1777
15.0062499,2152
15.0087499,2400
15.0112499,2299
15.0137499,1962
15.0162499,1664
15.0187499,1637
15.021249899999999,1907
15.0237499,2268
15.0262499,2407
15.0287499,2196
15.0312499,1827
15.0337499,1603
15.0362499,1685
15.0387499,2020
15.0412499,2350
15.0437499,2379
15.0462499,2080
15.048749899999999,1730
15.0512499,1601
15.0537499,1761
15.0562499,2123
15.0587499,2386
15.0612499,2288
15.0637499,1933
15.066249899999999,1646
15.0687499,1621
15.0712499,1880
15.0737499,2244
15.0762499,2383
15.0787499,2172
15.0812499,1815
15.083749899999999,1588
15.0862499,1656
15.0887499,1991
15.0912499,2313
15.0937499,2331
15.0962499,2041
15.0987499,1685
15.1012499,1556
15.1037499,1735
15.1062499,2093
15.1087499,2333
15.111249899999999,2233
15.1137499,1880
15.1162499,1583
15.1187499,1564
15.1212499,1822
15.1237499,2191
15.1262499,2344
15.128749899999999,2120
15.1312499,1740
15.1337499,1522
15.1362499,1608
15.1387499,1959
15.1412499,2300
15.1437499,2318
15.146249899999999,2017
15.1487499,1669
15.1512499,1530
15.1537499,1699
15.1562499,2072
15.1587499,2318
15.1612499,2217
15.1637499,1878
15.1662499,1574
15.1687499,1538
15.1712499,1796
15.173749899999999,2151
15.1762499,2302
15.1787499,2107
15.1812499,1748
15.1837499,1529
15.1862499,1606
15.1887499,1922
15.191249899999999,2239
15.1937499,2262
15.1962499,1959
15.1987499,1627
15.2012499,1519
15.2037499,1695
15.2062499,2052
15.208749899999999,2292
15.2112499,2173
15.2137499,1824
15.2162499,1543
15.2187499,1522
15.2212499,1791
15.2237499,2165
15.2262499,2305
15.2287499,2094
15.2312499,1732
15.2337499,1501
15.236249899999999,1577
15.2387499,1912
15.2412499,2225
15.2437499,2244
15.2462499,1954
15.2487499,1600
15.2512499,1472
15.253749899999999,1653
15.2562499,2020
15.2587499,2273
15.2612499,2175
15.2637499,1824
15.2662499,1522
15.2687499,1488
15.271249899999999,1738
15.2737499,2115
15.2762499,2289
15.2787499,2096
15.2812499,1745
15.2837499,1530
15.2862499,1593
15.2887499,1923
15.2912499,2251
15.2937499,2265
15.2962499,1973
15.298749899999999,1630
15.3012499,1503
15.3037499,1690
15.3062499,2070
15.3087499,2312
15.3112499,2210
15.3137499,1873
15.316249899999999,1580
15.3187499,1561
15.3212499,1827
15.3237499,2186
15.3262499,2325
15.3287499,2112
15.3312499,1741
15.333749899999999,1521
15.3362499,1627
15.3387499,1959
15.3412499,2239
15.3437499,2246
15.3462499,1928
15.3487499,1571
15.3512499,1440
15.3537499,1614
15.3562499,1981
15.3587499,2233
15.361249899999999,2120
15.3637499,1770
15.3662499,1475
15.3687499,1443
15.3712499,1709
15.3737499,2073
15.3762499,2209
15.378749899999999,1994
15.3812499,1630
15.3837499,1411
15.3862499,1504
15.3887499,1844
15.3912499,2157
15.3937499,2172
15.396249899999999,1877
15.3987499,1529
15.4012499,1406
15.4037499,1587
15.4062499,1946
15.4087499,2189
15.4112499,2081
15.4137499,1720
15.4162499,1432
15.4187499,1434
15.4212499,1756
15.4237499,2217
15.4262499,2486
15.4287499,2429
15.4312499,2254
15.4337499,2220
15.4362499,2450
15.4387499,2876
15.441249899999999,3179
15.4437499,3084
15.4462499,2616
15.4487499,2041
15.4512499,1659
15.4537499,1577
15.4562499,1714
15.458749899999999,1811
15.4612499,1654
15.4637499,1329
15.4662499,1092
15.4687499,1144
15.4712499,1472
15.4737499,1878
15.4762499,2057
15.4787499,1867
15.4812499,1519
15.4837499,1311
15.4862499,1397
15.4887499,1727
15.4912499,2052
15.4937499,2064
15.4962499,1764
15.4987499,1438
15.5012499,1329
15.503749899999999,1519
15.5062499,1893
15.5087499,2138
15.5112499,2025
15.5137499,1682
15.5162499,1385
15.5187499,1359
15.521249899999999,1633
15.5237499,2001
15.5262499,2135
15.5287499,1922
15.5312499,1559
15.5337499,1339
15.5362499,1427
15.5387499,1759
15.5412499,2080
15.5437499,2112
15.5462499,1830
15.5487499,1495
15.5512499,1377
15.5537499,1551
15.5562499,1906
15.5587499,2152
15.5612499,2051
15.5637499,1712
15.566249899999999,1430
15.5687499,1408
15.5712499,1667
15.5737499,2036
15.5762499,2173
15.5787499,1954
15.5812499,1598
15.583749899999999,1385
15.5862499,1471
15.5887499,1812
15.5912499,2131
15.5937499,2146
15.5962499,1864
15.5987499,1527
15.6012499,1406
15.6037499,1587
15.6062499,1948
15.6087499,2189
15.6112499,2094
15.6137499,1749
15.6162499,1463
15.6187499,1453
15.6212499,1717
15.6237499,2077
15.6262499,2218
15.628749899999999,2010
15.6312499,1659
15.6337499,1474
15.6362499,1577
15.6387499,1915
15.6412499,2247
15.6437499,2262
15.646249899999999,1962
15.6487499,1630
15.6512499,1514
15.6537499,1695
15.6562499,2073
15.6587499,2318
15.6612499,2213
15.6637499,1880
15.6662499,1583
15.6687499,1558
15.6712499,1828
15.6737499,2186
15.6762499,2320
15.6787499,2112
15.6812499,1745
15.6837499,1533
15.6862499,1625
15.6887499,1949
15.691249899999999,2252
15.6937499,2267
15.6962499,1949
15.6987499,1592
15.7012499,1459
15.7037499,1621
15.7062499,1967
15.708749899999999,2197
15.7112499,2070
15.7137499,1708
15.7162499,1411
15.7187499,1382
15.7212499,1641
15.7237499,1999
15.7262499,2122
15.7287499,1901
15.7312499,1538
15.7337499,1305
15.7362499,1372
15.7387499,1696
15.7412499,1998
15.7437499,1999
15.7462499,1696
15.7487499,1359
15.7512499,1250
15.753749899999999,1450
15.7562499,1807
15.7587499,2039
15.7612499,1922
15.7637499,1559
15.7662499,1263
15.7687499,1258
15.771249899999999,1522
15.7737499,1885
15.7762499,2031
15.7787499,1809
15.7812499,1443
15.7837499,1223
15.7862499,1321
15.7887499,1669
15.7912499,1975
15.7937499,1993
15.7962499,1698
15.7987499,1364
15.8012499,1240
15.8037499,1424
15.8062499,1796
15.8087499,2028
15.8112499,1915
15.8137499,1580
15.816249899999999,1287
15.8187499,1269
15.8212499,1545
15.8237499,1899
15.8262499,2038
15.8287499,1824
15.8312499,1455
15.833749899999999,1242
15.8362499,1337
15.8387499,1667
15.8412499,1991
15.8437499,2014
15.8462499,1711
15.8487499,1364
15.8512499,1243
15.8537499,1416
15.8562499,1778
15.8587499,2027
15.8612499,1911
15.8637499,1574
15.8662499,1298
15.8687499,1277
15.8712499,1546
15.8737499,1912
15.8762499,2043
15.878749899999999,1827
15.8812499,1472
15.8837499,1252
15.8862499,1335
15.8887499,1669
15.8912499,1978
15.8937499,1988
15.896249899999999,1693
15.8987499,1345
15.9012499,1227
15.9037499,1413
15.9062499,1772
15.9087499,2019
15.9112499,1917
15.9137499,1569
15.9162499,1274
15.9187499,1261
15.9212499,1529
15.9237499,1891
15.9262499,2036
15.9287499,1815
15.9312499,1455
15.9337499,1239
15.9362499,1310
15.9387499,1637
15.941249899999999,1962
15.9437499,1975
15.9462499,1683
15.9487499,1348
15.9512499,1223
15.9537499,1401
15.9562499,1766
15.958749899999999,2009
15.9612499,1901
15.9637499,1564
15.9662499,1269
15.9687499,1261
15.9712499,1538
15.9737499,1894
15.9762499,2031
15.9787499,1812
15.9812499,1446
15.9837499,1237
15.9862499,1332
15.9887499,1666
15.9912499,1988
15.9937499,1999
15.9962499,1693
15.9987499,1351
16.0012499,1232
16.003749900000003,1411
16.0062499,1780
16.0087499,2030
16.011249900000003,1920
16.0137499,1580
16.016249900000002,1292
16.018749900000003,1268
16.0212499,1538
16.023749900000002,1898
16.0262499,2023
16.0287499,1804
16.031249900000002,1450
16.0337499,1234
16.0362499,1324
16.038749900000003,1662
16.0412499,1986
16.0437499,2001
16.046249900000003,1699
16.0487499,1347
16.051249900000002,1231
16.053749900000003,1413
16.0562499,1769
16.058749900000002,2014
16.0612499,1912
16.0637499,1569
16.066249900000003,1281
16.0687499,1263
16.0712499,1529
16.073749900000003,1894
16.0762499,2041
16.078749900000002,1827
16.081249900000003,1475
16.0837499,1264
16.086249900000002,1353
16.0887499,1701
16.0912499,2028
16.093749900000002,2033
16.0962499,1722
16.0987499,1377
16.101249900000003,1268
16.1037499,1477
16.1062499,1859
16.108749900000003,2101
16.1112499,1994
16.113749900000002,1653
16.116249900000003,1358
16.1187499,1345
16.121249900000002,1627
16.1237499,1990
16.1262499,2131
16.128749900000003,1914
16.1312499,1543
16.1337499,1326
16.136249900000003,1398
16.1387499,1720
16.141249900000002,2033
16.143749900000003,2033
16.1462499,1720
16.148749900000002,1377
16.1512499,1253
16.1537499,1435
16.156249900000002,1812
16.1587499,2048
16.1612499,1920
16.163749900000003,1572
16.1662499,1276
16.1687499,1247
16.171249900000003,1513
16.1737499,1875
16.176249900000002,2007
16.178749900000003,1793
16.1812499,1432
16.183749900000002,1227
16.1862499,1330
16.1887499,1667
16.191249900000003,1991
16.1937499,2006
16.1962499,1698
16.198749900000003,1345
16.2012499,1224
16.203749900000002,1401
16.206249900000003,1759
16.2087499,2002
16.211249900000002,1890
16.2137499,1550
16.2162499,1297
16.218749900000002,1340
16.2212499,1699
16.2237499,2184
16.226249900000003,2471
16.2287499,2429
16.2312499,2255
16.233749900000003,2205
16.2362499,2400
16.238749900000002,2734
16.241249900000003,2908
16.2437499,2731
16.246249900000002,2204
16.2487499,1609
16.2512499,1226
16.253749900000003,1182
16.2562499,1393
16.2587499,1580
16.261249900000003,1506
16.2637499,1221
16.266249900000002,1005
16.268749900000003,1063
16.2712499,1379
16.273749900000002,1764
16.2762499,1917
16.2787499,1708
16.281249900000002,1345
16.2837499,1134
16.2862499,1219
16.288749900000003,1566
16.2912499,1902
16.2937499,1922
16.296249900000003,1627
16.2987499,1297
16.301249900000002,1179
16.303749900000003,1361
16.3062499,1737
16.308749900000002,1973
16.3112499,1857
16.3137499,1521
16.316249900000003,1239
16.3187499,1224
16.3212499,1501
16.323749900000003,1853
16.3262499,1983
16.328749900000002,1775
16.331249900000003,1419
16.3337499,1214
16.336249900000002,1313
16.3387499,1648
16.3412499,1957
16.343749900000002,1972
16.3462499,1674
16.3487499,1335
16.351249900000003,1232
16.3537499,1419
16.3562499,1782
16.358749900000003,2027
16.3612499,1906
16.363749900000002,1550
16.366249900000003,1261
16.3687499,1247
16.371249900000002,1525
16.3737499,1899
16.3762499,2036
16.378749900000003,1814
16.3812499,1458
16.3837499,1237
16.386249900000003,1319
16.3887499,1664
16.391249900000002,1986
16.393749900000003,2007
16.3962499,1724
16.398749900000002,1393
16.4012499,1281
16.4037499,1474
16.406249900000002,1832
16.4087499,2070
16.4112499,1969
16.413749900000003,1622
16.4162499,1329
16.4187499,1329
16.421249900000003,1612
16.4237499,1994
16.426249900000002,2155
16.428749900000003,1948
16.4312499,1590
16.433749900000002,1385
16.4362499,1467
16.4387499,1793
16.441249900000003,2115
16.4437499,2125
16.4462499,1832
16.448749900000003,1511
16.4512499,1408
16.453749900000002,1608
16.456249900000003,1985
16.4587499,2215
16.461249900000002,2096
16.4637499,1753
16.4662499,1459
16.468749900000002,1453
16.4712499,1735
16.4737499,2093
16.476249900000003,2222
16.4787499,2007
16.4812499,1637
16.483749900000003,1409
16.4862499,1506
16.488749900000002,1836
16.491249900000003,2149
16.4937499,2157
16.496249900000002,1840
16.4987499,1485
16.5012499,1356
16.503749900000003,1519
16.5062499,1865
16.5087499,2094
16.511249900000003,1959
16.5137499,1592
16.516249900000002,1297
16.518749900000003,1268
16.5212499,1538
16.523749900000002,1909
16.5262499,2030
16.5287499,1790
16.531249900000002,1414
16.5337499,1184
16.5362499,1263
16.538749900000003,1603
16.5412499,1914
16.5437499,1920
16.546249900000003,1624
16.5487499,1272
16.551249900000002,1155
16.553749900000003,1351
16.5562499,1716
16.558749900000002,1961
16.5612499,1857
16.5637499,1503
16.566249900000003,1211
16.5687499,1206
16.5712499,1477
16.573749900000003,1838
16.5762499,1970
16.578749900000002,1737
16.581249900000003,1369
16.5837499,1168
16.586249900000002,1258
16.5887499,1600
16.5912499,1925
16.593749900000002,1930
16.5962499,1641
16.5987499,1313
16.601249900000003,1189
16.6037499,1377
16.6062499,1751
16.608749900000003,1990
16.6112499,1880
16.613749900000002,1533
16.616249900000003,1232
16.6187499,1218
16.621249900000002,1493
16.6237499,1836
16.6262499,1972
16.628749900000003,1772
16.6312499,1414
16.6337499,1206
16.636249900000003,1295
16.6387499,1621
16.641249900000002,1935
16.643749900000003,1949
16.6462499,1646
16.648749900000002,1308
16.6512499,1197
16.6537499,1376
16.656249900000002,1745
16.6587499,1994
16.6612499,1875
16.663749900000003,1519
16.6662499,1226
16.6687499,1205
16.671249900000003,1484
16.6737499,1854
16.676249900000002,1991
16.678749900000003,1775
16.6812499,1387
16.683749900000002,1181
16.6862499,1282
16.6887499,1640
16.691249900000003,1938
16.6937499,1962
16.6962499,1662
16.698749900000003,1310
16.7012499,1200
16.703749900000002,1401
16.706249900000003,1772
16.7087499,2015
16.711249900000002,1901
16.7137499,1545
16.7162499,1248
16.718749900000002,1231
16.7212499,1496
16.7237499,1853
16.726249900000003,1993
16.7287499,1777
16.7312499,1426
16.733749900000003,1216
16.7362499,1292
16.738749900000002,1629
16.741249900000003,1952
16.7437499,1964
16.746249900000002,1666
16.7487499,1326
16.7512499,1195
16.753749900000003,1372
16.7562499,1738
16.7587499,1977
16.761249900000003,1877
16.7637499,1543
16.766249900000002,1252
16.768749900000003,1242
16.7712499,1521
16.773749900000002,1867
16.7762499,1991
16.7787499,1769
16.781249900000002,1405
16.7837499,1202
16.7862499,1300
16.788749900000003,1633
16.7912499,1959
16.7937499,1975
16.796249900000003,1669
16.7987499,1326
16.801249900000002,1211
16.803749900000003,1395
16.8062499,1772
16.808749900000002,2015
16.8112499,1893
16.8137499,1546
16.816249900000003,1258
16.8187499,1243
16.8212499,1522
16.823749900000003,1888
16.8262499,2020
16.828749900000002,1806
16.831249900000003,1445
16.8337499,1227
16.836249900000002,1316
16.8387499,1650
16.8412499,1959
16.843749900000002,1967
16.8462499,1674
16.8487499,1332
16.851249900000003,1224
16.8537499,1414
16.8562499,1777
16.858749900000003,2023
16.8612499,1915
16.863749900000002,1569
16.866249900000003,1276
16.8687499,1255
16.871249900000002,1516
16.8737499,1878
16.8762499,2019
16.878749900000003,1796
16.8812499,1440
16.8837499,1229
16.886249900000003,1316
16.8887499,1669
16.891249900000002,2001
16.893749900000003,2012
16.8962499,1717
16.898749900000002,1376
16.9012499,1248
16.9037499,1432
16.906249900000002,1796
16.9087499,2033
16.9112499,1930
16.913749900000003,1593
16.9162499,1306
16.9187499,1300
16.921249900000003,1574
16.9237499,1935
16.926249900000002,2073
16.928749900000003,1857
16.9312499,1501
16.933749900000002,1300
16.9362499,1395
16.9387499,1728
16.941249900000003,2051
16.9437499,2056
16.9462499,1751
16.948749900000003,1419
16.9512499,1305
16.953749900000002,1485
16.956249900000003,1849
16.9587499,2078
16.961249900000002,1951
16.9637499,1608
16.9662499,1311
16.968749900000002,1287
16.9712499,1561
16.9737499,1919
16.976249900000003,2046
16.9787499,1820
16.9812499,1448
16.983749900000003,1221
16.9862499,1313
16.988749900000002,1650
16.991249900000003,1969
16.9937499,1980
16.996249900000002,1670
16.9987499,1327
17.0012499,1216
17.003749900000003,1403
17.0062499,1772
17.0087499,2025
17.011249900000003,1914
17.0137499,1566
17.016249900000002,1277
17.018749900000003,1253
17.0212499,1509
17.023749900000002,1862
17.0262499,1980
17.0287499,1749
17.031249900000002,1409
17.0337499,1221
17.0362499,1339
17.038749900000003,1735
17.0412499,2131
17.0437499,2247
17.046249900000003,2107
17.0487499,1941
17.051249900000002,2002
17.053749900000003,2360
17.0562499,2834
17.058749900000002,3087
17.0612499,2889
17.0637499,2355
17.066249900000003,1827
17.0687499,1569
17.0712499,1595
17.073749900000003,1735
17.0762499,1719
