# Time (seconds),Voltage
0.0012499,22
0.0037499,62
0.0062499,1
0.0087499,-1
0.0112499,0
0.0137499,0
0.016249899999999998,0
0.0187499,0
0.021249900000000002,0
0.023749899999999997,-1
0.0262499,-1
0.028749900000000002,0
0.031249899999999997,0
0.0337499,0
0.0362499,0
0.0387499,0
0.0412499,0
0.0437499,-1
0.0462499,0
0.0487499,0
0.0512499,1
0.053749899999999996,0
0.0562499,0
0.0587499,-1
0.061249899999999996,-1
0.0637499,0
0.0662499,-1
0.0687499,0
0.0712499,-1
0.0737499,0
0.0762499,0
0.0787499,0
0.0812499,0
0.0837499,-1
0.0862499,0
0.0887499,0
0.0912499,-1
0.0937499,-1
0.0962499,-1
0.0987499,-1
0.1012499,0
0.1037499,0
0.1062499,0
0.1087499,0
0.1112499,0
0.1137499,-1
0.1162499,-1
0.1187499,-1
0.1212499,-1
0.1237499,0
0.1262499,0
0.1287499,0
0.1312499,0
0.1337499,0
0.1362499,0
0.1387499,0
0.1412499,0
0.1437499,0
0.1462499,0
0.1487499,-1
0.1512499,-1
0.1537499,-1
0.1562499,0
0.1587499,0
0.1612499,0
0.1637499,-1
0.1662499,-1
0.1687499,0
0.1712499,0
0.1737499,0
0.17624990000000001,-1
0.1787499,0
0.1812499,-1
0.1837499,0
0.1862499,0
0.1887499,0
0.1912499,-1
0.1937499,0
0.1962499,0
0.1987499,0
0.2012499,0
0.2037499,0
0.2062499,0
0.20874990000000002,0
0.2112499,0
0.2137499,0
0.2162499,0
0.2187499,-1
0.2212499,0
0.2237499,-1
0.2262499,-1
0.2287499,0
0.2312499,1
0.2337499,-1
0.2362499,-1
0.23874990000000001,0
0.2412499,-1
0.2437499,0
0.2462499,0
0.2487499,0
0.2512499,0
0.25374990000000003,0
0.25624990000000003,-1
0.25874990000000003,-1
0.26124990000000003,0
0.26374990000000004,0
0.26624990000000004,-1
0.26874990000000004,-1
0.27124990000000004,0
0.27374990000000005,0
0.27624990000000005,0
0.27874990000000005,0
0.28124990000000005,-1
0.28374990000000005,0
0.28624990000000006,1
0.28874990000000006,0
0.2912499,-1
0.2937499,0
0.2962499,-1
0.2987499,0
0.3012499,-1
0.3037499,0
0.3062499,-1
0.3087499,0
0.3112499,0
0.3137499,-1
0.31624990000000003,-1
0.31874990000000003,0
0.32124990000000003,0
0.32374990000000003,-1
0.32624990000000004,-1
0.32874990000000004,-1
0.33124990000000004,0
0.33374990000000004,-1
0.33624990000000005,0
0.33874990000000005,0
0.34124990000000005,-1
0.34374990000000005,0
0.34624990000000005,1
0.34874990000000006,0
0.35124990000000006,0
0.3537499,0
0.3562499,0
0.3587499,-1
0.3612499,0
0.3637499,0
0.3662499,0
0.3687499,0
0.3712499,-1
0.3737499,0
0.3762499,0
0.37874990000000003,0
0.38124990000000003,0
0.38374990000000003,-1
0.38624990000000003,-1
0.38874990000000004,-1
0.39124990000000004,0
0.39374990000000004,0
0.39624990000000004,0
0.39874990000000005,0
0.40124990000000005,0
0.40374990000000005,-1
0.40624990000000005,0
0.40874990000000005,-1
0.41124990000000006,-1
0.41374990000000006,1
0.41624990000000006,-1
0.4187499,1
0.4212499,0
0.4237499,0
0.4262499,0
0.4287499,-1
0.4312499,-1
0.4337499,1
0.4362499,0
0.4387499,-1
0.44124990000000003,-1
0.44374990000000003,0
0.44624990000000003,-1
0.44874990000000003,-1
0.45124990000000004,0
0.45374990000000004,0
0.45624990000000004,-1
0.45874990000000004,0
0.46124990000000005,0
0.46374990000000005,-1
0.46624990000000005,-1
0.46874990000000005,-1
0.47124990000000005,-1
0.47374990000000006,0
0.47624990000000006,0
0.47874990000000006,0
0.4812499,-1
0.4837499,0
0.4862499,1
0.4887499,0
0.4912499,0
0.4937499,0
0.4962499,-1
0.4987499,0
0.5012499,0
0.5037499000000001,-1
0.5062499,-1
0.5087499000000001,-1
0.5112499,0
0.5137499,-1
0.5162499,-1
0.5187499,0
0.5212499,-1
0.5237499,0
0.5262499,0
0.5287499,1
0.5312499,-1
0.5337499,-1
0.5362499000000001,-1
0.5387499,-1
0.5412499000000001,0
0.5437499,0
0.5462499000000001,0
0.5487499,0
0.5512499000000001,-1
0.5537499,-1
0.5562499000000001,-1
0.5587499,0
0.5612499000000001,0
0.5637499,-1
0.5662499000000001,0
0.5687499,0
0.5712499000000001,-1
0.5737499,0
0.5762499000000001,-1
0.5787499,-1
0.5812499,-1
0.5837499,-1
0.5862499,0
0.5887499,0
0.5912499,-1
0.5937499,-1
0.5962499,-1
0.5987499000000001,0
0.6012499,0
0.6037499000000001,0
0.6062499,-1
0.6087499000000001,0
0.6112499,-1
0.6137499000000001,0
0.6162499,0
0.6187499000000001,0
0.6212499,0
0.6237499000000001,-1
0.6262499,-1
0.6287499000000001,0
0.6312499,-1
0.6337499000000001,-1
0.6362499,0
0.6387499000000001,0
0.6412499,0
0.6437499,0
0.6462499,-1
0.6487499,0
0.6512499,0
0.6537499,0
0.6562499,-1
0.6587499,-1
0.6612499000000001,-1
0.6637499,-1
0.6662499000000001,-1
0.6687499,-1
0.6712499000000001,0
0.6737499,0
0.6762499000000001,0
0.6787499,-1
0.6812499000000001,-1
0.6837499,53
0.6862499000000001,162
0.6887499,83
0.6912499000000001,-1
0.6937499,0
0.6962499000000001,-1
0.6987499,116
0.7012499000000001,356
0.7037499,425
0.7062499,217
0.7087499,0
0.7112499,-1
0.7137499,30
0.7162499,277
0.7187499,505
0.7212499,489
0.7237499000000001,219
0.7262499,-1
0.7287499000000001,0
0.7312499,186
0.7337499000000001,505
0.7362499,686
0.7387499000000001,554
0.7412499,241
0.7437499000000001,24
0.7462499,99
0.7487499000000001,406
0.7512499,725
0.7537499000000001,815
0.7562499,592
0.7587499000000001,269
0.7612499,128
0.7637499000000001,288
0.7662499,638
0.7687499000000001,921
0.7712499,907
0.7737499,610
0.7762499,310
0.7787499,262
0.7812499,478
0.7837499,800
0.7862499000000001,961
0.7887499,821
0.7912499000000001,496
0.7937499,278
0.7962499000000001,341
0.7987499,633
0.8012499000000001,937
0.8037499,1000
0.8062499000000001,763
0.8087499,441
0.8112499000000001,312
0.8137499,473
0.8162499000000001,815
0.8187499,1076
0.8212499000000001,1040
0.8237499,739
0.8262499000000001,449
0.8287499,417
0.8312499000000001,659
0.8337499,999
0.8362499,1174
0.8387499,1023
0.8412499,694
0.8437499,472
0.8462499,557
0.8487499000000001,862
0.8512499,1160
0.8537499000000001,1214
0.8562499,1016
0.8587499000000001,763
0.8612499,731
0.8637499000000001,1021
0.8662499,1517
0.8687499000000001,1951
0.8712499,2097
0.8737499000000001,1969
0.8762499,1803
0.8787499000000001,1795
0.8812499,1938
0.8837499000000001,2083
0.8862499,2009
0.8887499000000001,1593
0.8912499,995
0.8937499000000001,552
0.8962499,486
0.8987499,741
0.9012499,1074
0.9037499,1200
0.9062499,1028
0.9087499,771
0.9112499000000001,696
0.9137499,894
0.9162499000000001,1255
0.9187499,1519
0.9212499000000001,1477
0.9237499,1177
0.9262499000000001,903
0.9287499,889
0.9312499000000001,1140
0.9337499,1475
0.9362499000000001,1637
0.9387499,1475
0.9412499000000001,1142
0.9437499,934
0.9462499000000001,1026
0.9487499,1347
0.9512499000000001,1661
0.9537499,1720
0.9562499000000001,1479
0.9587499,1163
0.9612499,1052
0.9637499,1231
0.9662499,1575
0.9687499,1815
0.9712499,1757
0.9737499000000001,1453
0.9762499,1181
0.9787499000000001,1173
0.9812499,1434
0.9837499000000001,1767
0.9862499,1914
0.9887499000000001,1738
0.9912499,1409
0.9937499000000001,1214
0.9962499,1316
0.9987499000000001,1630
1.0012499,1930
1.0037498999999999,1973
1.0062499,1712
1.0087499,1384
1.0112499,1266
1.0137498999999999,1448
1.0162499,1795
1.0187499,2043
1.0212499,1985
1.0237498999999999,1679
1.0262498999999998,1408
1.0287499,1408
1.0312499,1670
1.0337498999999999,2010
1.0362498999999998,2160
1.0387499,1991
1.0412499,1661
1.0437499,1461
1.0462498999999998,1548
1.0487499,1854
1.0512499,2160
1.0537499,2212
1.0562498999999999,1964
1.0587499,1656
1.0612499,1561
1.0637499,1751
1.0662498999999999,2094
1.0687499,2323
1.0712499,2246
1.0737499,1935
1.0762498999999999,1670
1.0787499,1679
1.0812499,1954
1.0837499,2302
1.0862498999999999,2458
1.0887499,2291
1.0912499,1956
1.0937499,1759
1.0962498999999999,1857
1.0987498999999998,2170
1.1012499,2466
1.1037499,2504
1.1062499,2244
1.1087498999999998,1925
1.1112499,1827
1.1137499,2022
1.1162499,2365
1.1187498999999999,2589
1.1212499,2504
1.1237499,2183
1.1262499,1912
1.1287498999999999,1920
1.1312499,2173
1.1337499,2489
1.1362499,2603
1.1387498999999999,2400
1.1412499,2044
1.1437499,1832
1.1462499,1922
1.1487498999999999,2223
1.1512499,2500
1.1537499,2510
1.1562499,2222
1.1587498999999999,1891
1.1612498999999998,1790
1.1637499,1977
1.1662499,2307
1.1687499,2513
1.1712498999999998,2417
1.1737499,2081
1.1762499,1814
1.1787499,1832
1.1812498999999999,2097
1.1837499,2421
1.1862499,2542
1.1887499,2347
1.1912498999999999,2012
1.1937499,1824
1.1962499,1940
1.1987499,2260
1.2012498999999999,2547
1.2037499,2565
1.2062499,2292
1.2087499,1977
1.2112498999999999,1885
1.2137499,2081
1.2162499,2421
1.2187499,2640
1.2212498999999999,2552
1.2237498999999998,2230
1.2262499,1969
1.2287499,1990
1.2312499,2260
1.2337498999999998,2587
1.2362499,2707
1.2387499,2507
1.2412499,2165
1.2437498999999999,1981
1.2462499,2099
1.2487499,2420
1.2512499,2699
1.2537498999999999,2705
1.2562499,2431
1.2587499,2125
1.2612499,2048
1.2637498999999999,2254
1.2662499,2587
1.2687499,2789
1.2712499,2682
1.2737498999999999,2363
1.2762499,2107
1.2787499,2126
1.2812499,2396
1.2837498999999999,2728
1.2862498999999998,2853
1.2887499,2653
1.2912499,2317
1.2937499,2133
1.2962498999999998,2251
1.2987499,2568
1.3012499,2844
1.3037499,2844
1.3062498999999999,2555
1.3087499,2241
1.3112499,2159
1.3137499,2362
1.3162498999999999,2694
1.3187499,2897
1.3212499,2765
1.3237499,2429
1.3262498999999999,2196
1.3287499,2212
1.3312499,2478
1.3337499,2797
1.3362498999999999,2900
1.3387499,2692
1.3412499,2354
1.3437499,2178
1.3462498999999999,2299
1.3487498999999998,2623
1.3512499,2903
1.3537499,2902
1.3562499,2616
1.3587498999999998,2305
1.3612499,2226
1.3637499,2433
1.3662499,2769
1.3687498999999999,2964
1.3712499,2840
1.3737499,2512
1.3762499,2257
1.3787498999999999,2291
1.3812499,2566
1.3837499,2885
1.3862499,2990
1.3887498999999999,2782
1.3912499,2454
1.3937499,2286
1.3962499,2417
1.3987498999999999,2744
1.4012499,3014
1.4037499,2998
1.4062499,2708
1.4087498999999999,2407
1.4112498999999998,2347
1.4137499,2565
1.4162499,2900
1.4187499,3085
1.4212498999999998,2958
1.4237499,2636
1.4262499,2397
1.4287499,2447
1.4312498999999999,2739
1.4337499,3066
1.4362499,3161
1.4387499,2948
1.4412498999999999,2613
1.4437499,2442
1.4462499,2557
1.4487499,2861
1.4512498999999999,3105
1.4537499,3066
1.4562499,2763
1.4587499,2457
1.4612498999999999,2399
1.4637499,2618
1.4662499,2955
1.4687499,3132
1.4712498999999999,2993
1.4737498999999998,2650
1.4762499,2397
1.4787499,2439
1.4812499,2732
1.4837498999999998,3053
1.4862499,3137
1.4887499,2908
1.4912499,2570
1.4937498999999999,2407
1.4962499,2539
1.4987499,2863
1.5012499,3119
1.5037498999999999,3087
1.5062499,2784
1.5087499,2473
1.5112499,2418
1.5137498999999999,2639
1.5162499,2969
1.5187499,3148
1.5212499,3035
1.5237498999999999,2753
1.5262499,2597
1.5287499,2750
1.5312499,3166
1.5337498999999999,3229
1.5362499,3230
1.5387499,3229
1.5412499,3229
1.5437499,3230
1.5462498999999998,3232
1.5487499,3235
1.5512499,3233
1.5537499,3230
1.5562498999999999,3216
1.5587499,3069
1.5612499,2853
1.5637499,2815
1.5662498999999999,2918
1.5687499,2961
1.5712499,2779
1.5737499,2473
1.5762498999999999,2292
1.5787499,2407
1.5812499,2744
1.5837499,3084
1.5862498999999999,3169
1.5887499,2955
1.5912499,2629
1.5937499,2479
1.5962498999999999,2615
1.5987499,2932
1.6012499,3177
1.6037499,3140
1.6062499,2861
1.6087498999999998,2578
1.6112499,2534
1.6137499,2758
1.6162499,3087
1.6187498999999999,3201
1.6212499,3079
1.6237499,2763
1.6262499,2539
1.6287498999999999,2600
1.6312499,2890
1.6337499,3177
1.6362499,3192
1.6387498999999999,2982
1.6412499,2669
1.6437499,2539
1.6462499,2702
1.6487498999999999,3032
1.6512499,3209
1.6537499,3166
1.6562499,2900
1.6587498999999999,2626
1.6612499,2595
1.6637499,2831
1.6662499,3153
1.6687499,3211
1.6712498999999998,3121
1.6737499,2832
1.6762499,2628
1.6787499,2697
1.6812498999999999,2980
1.6837499,3209
1.6862499,3203
1.6887499,3035
1.6912498999999999,2748
1.6937499,2634
1.6962499,2794
1.6987499,3116
1.7012498999999999,3216
1.7037499,3188
1.7062499,2972
1.7087499,2732
1.7112498999999999,2719
1.7137499,2951
1.7162499,3209
1.7187499,3216
1.7212498999999999,3156
1.7237499,2918
1.7262499,2740
1.7287499,2816
1.7312499,3097
1.7337498999999998,3219
1.7362499,3211
1.7387499,3111
1.7412499,2876
1.7437498999999999,2781
1.7462499,2939
1.7487499,3208
1.7512499,3221
1.7537498999999999,3208
1.7562499,3067
1.7587499,2861
1.7612499,2856
1.7637498999999999,3077
1.7662499,3221
1.7687499,3219
1.7712499,3187
1.7737498999999999,2995
1.7762499,2837
1.7787499,2908
1.7812499,3164
1.7837498999999999,3222
1.7862499,3213
1.7887499,3106
1.7912499,2869
1.7937499,2786
1.7962498999999998,2922
1.7987499,3188
1.8012499,3217
1.8037499,3180
1.8062498999999999,2937
1.8087499,2674
1.8112499,2644
1.8137499,2852
1.8162498999999999,3130
1.8187499,3192
1.8212499,3011
1.8237499,2658
1.8262498999999999,2433
1.8287499,2495
1.8312499,2781
1.8337499,3064
1.8362498999999999,3101
1.8387499,2840
1.8412499,2512
1.8437499,2389
1.8462498999999999,2547
1.8487499,2861
1.8512499,3079
1.8537499,2993
1.8562499,2669
1.8587498999999998,2379
1.8612499,2357
1.8637499,2611
1.8662499,2956
1.8687498999999999,3108
1.8712499,2931
1.8737499,2586
1.8762499,2375
1.8787498999999999,2462
1.8812499,2768
1.8837499,3056
1.8862499,3082
1.8887498999999999,2810
1.8912499,2475
1.8937499,2359
1.8962499,2536
1.8987498999999999,2868
1.9012499,3095
1.9037499,3013
1.9062499,2690
1.9087498999999999,2408
1.9112499,2402
1.9137499,2661
1.9162499,2992
1.9187499,3121
1.9212498999999998,2929
1.9237499,2581
1.9262499,2370
1.9287499,2463
1.9312498999999999,2776
1.9337499,3061
1.9362499,3079
1.9387499,2805
1.9412498999999999,2476
1.9437499,2367
1.9462499,2544
1.9487499,2874
1.9512498999999999,3088
1.9537499,3003
1.9562499,2689
1.9587499,2423
1.9612498999999999,2428
1.9637499,2682
1.9662499,2997
1.9687499,3114
1.9712498999999999,2913
1.9737499,2562
1.9762499,2357
1.9787499,2450
1.9812499,2761
1.9837499,3047
1.9862499,3066
1.9887499,2795
1.9912499,2468
1.9937498999999999,2365
1.9962499,2544
1.9987499,2873
2.0012499,3084
2.0037499,2990
2.0062499,2663
2.0087498999999998,2388
2.0112499,2389
2.0137499,2644
2.0162499,2948
2.0187499,3058
2.0212499,2863
2.0237499,2526
2.0262499,2338
2.0287498999999998,2447
2.0312499,2761
2.0337499,3037
2.0362499,3038
2.0387499,2747
2.0412499,2417
2.0437499,2318
2.0462499,2512
2.0487499,2844
2.0512498999999997,3042
2.0537499,2922
2.0562499,2574
2.0587499,2286
2.0612499,2284
2.0637499,2537
2.0662499,2850
2.0687499,2931
2.0712498999999998,2663
2.0737499,2257
2.0762499,2022
2.0787499,2102
2.0812499,2402
2.0837499,2668
2.0862499,2669
2.0887499,2388
2.0912498999999998,2073
2.0937499,1988
2.0962499,2186
2.0987499,2515
2.1012499,2716
2.1037499,2607
2.1062499,2280
2.1087499,2027
2.1112499,2064
2.1137498999999997,2350
2.1162499,2681
2.1187499,2790
2.1212499,2568
2.1237499,2207
2.1262499,2004
2.1287499,2102
2.1312499,2404
2.1337498999999998,2671
2.1362499,2657
2.1387499,2367
2.1412499,2048
2.1437499,1969
2.1462499,2173
2.1487499,2507
2.1512499,2705
2.1537498999999998,2584
2.1562499,2246
2.1587499,1988
2.1612499,2017
2.1637499,2299
2.1662499,2621
2.1687499,2719
2.1712499,2494
2.1737499,2141
2.1762499,1956
2.1787499,2073
2.1812499,2392
2.1837499,2669
2.1862499,2673
2.1887499,2388
2.1912499,2068
2.1937499,1994
2.1962498999999998,2205
2.1987499,2555
2.2012499,2781
2.2037499,2713
2.2062499,2465
2.2087499,2331
2.2112499,2516
2.2137499,2964
2.2162498999999998,3224
2.2187499,3227
2.2212499,3221
2.2237499,3195
2.2262499,3124
2.2287499,3098
2.2312499,3130
2.2337499,3064
2.2362499,2729
2.2387499,2180
2.2412499,1727
2.2437499,1624
2.2462499,1873
2.2487499,2284
2.2512499,2552
2.2537499,2466
2.2562499,2159
2.2587498999999998,1943
2.2612499,1998
2.2637499,2281
2.2662499,2602
2.2687499,2692
2.2712499,2462
2.2737499,2112
2.2762499,1938
2.2787498999999998,2062
2.2812499,2389
2.2837499,2665
2.2862499,2653
2.2887499,2365
2.2912499,2059
2.2937499,1994
2.2962499,2210
2.2987499,2549
2.3012499,2731
2.3037499,2591
2.3062499,2246
2.3087499,1994
2.3112499,2038
2.3137499,2325
2.3162499,2636
2.3187499,2715
2.3212498999999998,2476
2.3237499,2131
2.3262499,1969
2.3287499,2109
2.3312499,2436
2.3337499,2695
2.3362499,2660
2.3387499,2352
2.3412498999999998,2038
2.3437499,1975
2.3462499,2196
2.3487499,2526
2.3512499,2707
2.3537499,2573
2.3562499,2238
2.3587499,1994
2.3612499,2049
2.3637499,2341
2.3662499,2649
2.3687499,2719
2.3712499,2468
2.3737499,2118
2.3762499,1967
2.3787499,2126
2.3812499,2468
2.3837498999999998,2728
2.3862499,2684
2.3887499,2363
2.3912499,2048
2.3937499,1996
2.3962499,2234
2.3987499,2582
2.4012499,2769
2.4037498999999998,2626
2.4062499,2286
2.4087499,2048
2.4112499,2102
2.4137499,2399
2.4162499,2710
2.4187499,2776
2.4212499,2528
2.4237499,2186
2.4262499,2044
2.4287499,2209
2.4312499,2547
2.4337499,2800
2.4362499,2752
2.4387499,2439
2.4412499,2136
2.4437499,2099
2.4462498999999998,2339
2.4487499,2678
2.4512499,2837
2.4537499,2663
2.4562499,2305
2.4587499,2067
2.4612499,2128
2.4637499,2425
2.4662498999999998,2726
2.4687499,2774
2.4712499,2507
2.4737499,2159
2.4762499,2009
2.4787499,2152
2.4812499,2468
2.4837499,2692
2.4862499,2608
2.4887499,2260
2.4912499,1935
2.4937499,1883
2.4962499,2109
2.4987499,2434
2.5012499,2581
2.5037499,2402
2.5062499,2041
2.5087498999999998,1795
2.5112499,1841
2.5137499,2117
2.5162499,2402
2.5187499,2454
2.5212499,2196
2.5237499,1851
2.5262499,1706
2.5287498999999998,1867
2.5312499,2201
2.5337499,2446
2.5362499,2388
2.5387499,2067
2.5412499,1767
2.5437499,1727
2.5462499,1956
2.5487499,2281
2.5512499,2429
2.5537499,2254
2.5562499,1904
2.5587499,1677
2.5612499,1751
2.5637499,2054
2.5662499,2355
2.5687499,2399
2.5712498999999998,2130
2.5737499,1790
2.5762499,1661
2.5787499,1828
2.5812499,2160
2.5837499,2394
2.5862499,2320
2.5887499,1993
2.5912498999999998,1696
2.5937499,1672
2.5962499,1914
2.5987499,2244
2.6012499,2397
2.6037499,2220
2.6062499,1867
2.6087499,1638
2.6112499,1711
2.6137499,2017
2.6162499,2318
2.6187499,2355
2.6212499,2078
2.6237499,1735
2.6262499,1612
2.6287499,1785
2.6312499,2117
2.6337498999999998,2346
2.6362499,2263
2.6387499,1932
2.6412499,1640
2.6437499,1619
2.6462499,1857
2.6487499,2188
2.6512499,2331
2.6537498999999998,2143
2.6562499,1791
2.6587499,1579
2.6612499,1662
2.6637499,1964
2.6662499,2251
2.6687499,2271
2.6712499,1991
2.6737499,1654
2.6762499,1540
2.6787499,1708
2.6812499,2041
2.6837499,2270
2.6862499,2180
2.6887499,1848
2.6912499,1558
2.6937499,1542
2.6962498999999998,1795
2.6987499,2130
2.7012499,2270
2.7037499,2078
2.7062499,1730
2.7087499,1524
2.7112499,1612
2.7137499,1917
2.7162498999999998,2202
2.7187499,2218
2.7212499,1936
2.7237499,1587
2.7262499,1503
2.7287499,1704
2.7312499,2044
2.7337499,2241
2.7362499,2147
2.7387499,1807
2.7412499,1521
2.7437499,1513
2.7462499,1767
2.7487499,2097
2.7512499,2226
2.7537499,2033
2.7562499,1683
2.7587498999999998,1479
2.7612499,1574
2.7637499,1873
2.7662499,2159
2.7687499,2181
2.7712499,1909
2.7737499,1582
2.7762499,1475
2.7787498999999998,1658
2.7812499,1991
2.7837499,2204
2.7862499,2099
2.7887499,1769
2.7912499,1498
2.7937499,1506
2.7962499,1769
2.7987499,2099
2.8012499,2230
2.8037499,2030
2.8062499,1680
2.8087499,1482
2.8112499,1580
2.8137499,1891
2.8162499,2175
2.8187499,2188
2.8212498999999998,1902
2.8237499,1579
2.8262499,1484
2.8287499,1682
2.8312499,2028
2.8337499,2242
2.8362499,2126
2.8387499,1772
2.8412498999999998,1474
2.8437499,1461
2.8462499,1708
2.8487499,2017
2.8512499,2125
2.8537499,1906
2.8562499,1554
2.8587499,1363
2.8612499,1482
2.8637499,1803
2.8662499,2086
2.8687499,2086
2.8712499,1790
2.8737499,1456
2.8762499,1356
2.8787499,1548
2.8812499,1880
2.8837498999999998,2085
2.8862499,1977
2.8887499,1635
2.8912499,1359
2.8937499,1374
2.8962499,1645
2.8987499,1970
2.9012499,2080
2.9037498999999998,1859
2.9062499,1500
2.9087499,1303
2.9112499,1417
2.9137499,1748
2.9162499,2065
2.9187499,2144
2.9212499,1964
2.9237499,1780
2.9262499,1857
2.9287499,2242
2.9312499,2760
2.9337499,3108
2.9362499,3056
2.9387499,2655
2.9412499,2212
2.9437499,1990
2.9462498999999998,2002
2.9487499,2070
2.9512499,1935
2.9537499,1543
2.9562499,1118
2.9587499,937
2.9612499,1110
2.9637499,1503
2.9662498999999998,1838
2.9687499,1873
2.9712499,1604
2.9737499,1298
2.9762499,1234
2.9787499,1453
2.9812499,1796
2.9837499,2001
2.9862499,1880
2.9887499,1540
2.9912499,1276
2.9937499,1303
2.9962499,1582
2.9987499,1899
3.0012499,1994
3.0037499,1770
3.0062499,1426
3.0087499,1253
3.0112499,1380
3.0137499,1709
3.0162499,1990
3.0187499,1975
3.0212499,1666
3.0237499,1340
3.0262499,1266
3.0287498999999998,1482
3.0312499,1825
3.0337499,2023
3.0362499,1901
3.0387499,1563
3.0412499,1301
3.0437499,1334
3.0462499,1612
3.0487499,1930
3.0512499,2022
3.0537499,1793
3.0562499,1455
3.0587499,1289
3.0612499,1421
3.0637499,1745
3.0662499,2017
3.0687499,1999
3.0712499,1699
3.0737499,1380
3.0762499,1306
3.0787499,1516
3.0812499,1857
3.0837499,2059
3.0862499,1935
3.0887499,1600
3.0912498999999998,1348
3.0937499,1388
3.0962499,1674
3.0987499,1999
3.1012499,2099
3.1037499,1873
3.1062499,1529
3.1087499,1363
3.1112499,1498
3.1137499,1820
3.1162499,2085
3.1187499,2062
3.1212499,1766
3.1237499,1463
3.1262499,1405
3.1287499,1633
3.1312499,1978
3.1337499,2165
3.1362499,2030
3.1387499,1691
3.1412499,1446
3.1437499,1496
3.1462499,1786
3.1487499,2109
3.1512499,2191
3.1537498999999998,1951
3.1562499,1608
3.1587499,1455
3.1612499,1606
3.1637499,1941
3.1662499,2205
3.1687499,2170
3.1712499,1857
3.1737499,1540
3.1762499,1477
3.1787499,1699
3.1812499,2036
3.1837499,2212
3.1862499,2060
3.1887499,1709
3.1912499,1458
3.1937499,1496
3.1962499,1798
3.1987499,2085
3.2012499,2114
3.2037499,1830
3.2062499,1496
3.2087499,1326
3.2112499,1459
3.2137499,1777
3.2162498999999998,2023
3.2187499,1967
3.2212499,1637
3.2237499,1313
3.2262499,1252
3.2287499,1479
3.2312499,1817
3.2337499,1996
3.2362499,1843
3.2387499,1493
3.2412499,1247
3.2437499,1301
3.2462499,1593
3.2487499,1896
3.2512499,1959
3.2537499,1708
3.2562499,1363
3.2587499,1206
3.2612499,1351
3.2637499,1674
3.2662499,1927
3.2687499,1890
3.2712499,1590
3.2737499,1297
3.2762499,1263
3.2787498999999998,1503
3.2812499,1843
3.2837499,2010
3.2862499,1848
3.2887499,1498
3.2912499,1258
3.2937499,1319
3.2962499,1614
3.2987499,1922
3.3012499,1985
3.3037499,1730
3.3062499,1388
3.3087499,1248
3.3112499,1408
3.3137499,1738
3.3162499,1988
3.3187499,1935
3.3212499,1621
3.3237499,1321
3.3262499,1287
3.3287499,1525
3.3312499,1859
3.3337499,2017
3.3362499,1849
3.3387499,1498
3.3412498999999998,1261
3.3437499,1329
3.3462499,1633
3.3487499,1944
3.3512499,2004
3.3537499,1749
3.3562499,1411
3.3587499,1277
3.3612499,1437
3.3637499,1762
3.3662499,1998
3.3687499,1927
3.3712499,1608
3.3737499,1318
3.3762499,1295
3.3787499,1542
3.3812499,1872
3.3837499,2023
3.3862499,1846
3.3887499,1496
3.3912499,1264
3.3937499,1337
3.3962499,1643
3.3987499,1948
3.4012499,1996
3.4037498999999998,1735
3.4062499,1405
3.4087499,1281
3.4112499,1455
3.4137499,1785
3.4162499,2015
3.4187499,1932
3.4212499,1598
3.4237499,1295
3.4262499,1281
3.4287499,1543
3.4312499,1885
3.4337499,2041
3.4362499,1865
3.4387499,1516
3.4412499,1292
3.4437499,1372
3.4462499,1679
3.4487499,1981
3.4512499,2020
3.4537499,1749
3.4562499,1408
3.4587499,1284
3.4612499,1464
3.4637499,1806
3.4662498999999998,2046
3.4687499,1969
3.4712499,1640
3.4737499,1343
3.4762499,1321
3.4787499,1574
3.4812499,1912
3.4837499,2062
3.4862499,1883
3.4887499,1542
3.4912499,1329
3.4937499,1411
3.4962499,1712
3.4987499,2002
3.5012499,2035
3.5037499,1769
3.5062499,1446
3.5087499,1334
3.5112499,1511
3.5137499,1841
3.5162499,2070
3.5187499,1996
3.5212499,1674
3.5237499,1390
3.5262499,1384
3.5287498999999998,1641
3.5312499,1973
3.5337499,2110
3.5362499,1919
3.5387499,1569
3.5412499,1361
3.5437499,1459
3.5462499,1777
3.5487499,2072
3.5512499,2094
3.5537499,1822
3.5562499,1500
3.5587499,1398
3.5612499,1587
3.5637499,1922
3.5662499,2147
3.5687499,2060
3.5712499,1730
3.5737499,1455
3.5762499,1458
3.5787499,1719
3.5812499,2052
3.5837499,2180
3.5862499,1980
3.5887499,1630
3.5912498999999998,1430
3.5937499,1537
3.5962499,1846
3.5987499,2126
3.6012499,2131
3.6037499,1833
3.6062499,1490
3.6087499,1379
3.6112499,1564
3.6137499,1894
3.6162499,2106
3.6187499,2002
3.6212499,1667
3.6237499,1388
3.6262499,1393
3.6287499,1664
3.6312499,1996
3.6337499,2118
3.6362499,1907
3.6387499,1556
3.6412499,1363
3.6437499,1479
3.6462499,1804
3.6487499,2093
3.6512499,2096
3.6537498999999998,1798
3.6562499,1458
3.6587499,1353
3.6612499,1546
3.6637499,1882
3.6662499,2091
3.6687499,1970
3.6712499,1648
3.6737499,1446
3.6762499,1548
3.6787499,1932
3.6812499,2408
3.6837499,2692
3.6862499,2663
3.6887499,2484
3.6912499,2421
3.6937499,2570
3.6962499,2803
3.6987499,2905
3.7012499,2681
3.7037499,2138
3.7062499,1558
3.7087499,1223
3.7112499,1253
3.7137499,1522
3.7162498999999998,1737
3.7187499,1679
3.7212499,1414
3.7237499,1211
3.7262499,1277
3.7287499,1583
3.7312499,1925
3.7337499,2044
3.7362499,1833
3.7387499,1484
3.7412499,1292
3.7437499,1403
3.7462499,1732
3.7487499,2027
3.7512499,2033
3.7537499,1743
3.7562499,1422
3.7587499,1334
3.7612499,1533
3.7637499,1867
3.7662499,2070
3.7687499,1959
3.7712499,1635
3.7737499,1377
3.7762499,1403
3.7787498999999998,1677
3.7812499,2004
3.7837499,2112
3.7862499,1894
3.7887499,1546
3.7912499,1356
3.7937499,1475
3.7962499,1801
3.7987499,2085
3.8012499,2083
3.8037499,1790
3.8062499,1469
3.8087499,1390
3.8112499,1601
3.8137499,1946
3.8162499,2149
3.8187499,2023
3.8212499,1679
3.8237499,1411
3.8262499,1443
3.8287499,1728
3.8312499,2060
3.8337499,2168
3.8362499,1951
3.8387499,1604
3.8412498999999998,1426
3.8437499,1554
3.8462499,1882
3.8487499,2152
3.8512499,2136
3.8537499,1841
3.8562499,1537
3.8587499,1475
3.8612499,1693
3.8637499,2036
3.8662499,2234
3.8687499,2109
3.8712499,1767
3.8737499,1511
3.8762499,1546
3.8787499,1827
3.8812499,2151
3.8837499,2254
3.8862499,2028
3.8887499,1682
3.8912499,1516
3.8937499,1653
3.8962499,1988
3.8987499,2260
3.9012499,2247
3.9037499,1954
3.9062499,1648
3.9087499,1587
3.9112499,1807
3.9137499,2149
3.9162499,2336
3.9187499,2193
3.9212499,1840
3.9237499,1595
3.9262499,1648
3.9287499,1949
3.9312499,2278
3.9337499,2368
3.9362499,2130
3.9387499,1774
3.9412499,1600
3.9437499,1722
3.9462499,2038
3.9487499,2283
3.9512499,2241
3.9537499,1930
3.9562499,1611
3.9587499,1542
3.9612499,1748
3.9637499,2067
3.9662499,2226
3.9687499,2065
3.9712499,1708
3.9737499,1446
3.9762499,1482
3.9787499,1753
3.9812499,2052
3.9837499,2122
3.9862499,1878
3.9887499,1533
3.9912499,1374
3.9937499,1514
3.9962499,1840
3.9987499,2093
4.0012499,2048
4.003749900000001,1728
4.0062499,1414
4.008749900000001,1361
4.0112499,1588
4.0137499000000005,1925
4.0162499,2102
4.0187499,1956
4.021249900000001,1612
4.0237499,1368
4.026249900000001,1421
4.0287499,1716
4.031249900000001,2036
4.0337499,2114
4.0362499000000005,1873
4.0387499,1532
4.0412499,1380
4.043749900000001,1529
4.0462499,1859
4.048749900000001,2114
4.0512499,2072
4.053749900000001,1754
4.0562499,1438
4.0587499000000005,1387
4.061249900000001,1625
4.0637499,1972
4.066249900000001,2152
4.0687499,1999
4.071249900000001,1648
4.0737499,1406
4.0762499000000005,1464
4.0787499,1756
4.0812499,2065
4.083749900000001,2126
4.0862499,1875
4.088749900000001,1535
4.0912499,1393
4.093749900000001,1554
4.0962499,1885
4.0987499000000005,2131
4.1012499,2075
4.1037499,1751
4.106249900000001,1446
4.1087499,1408
4.111249900000001,1650
4.1137499,1998
4.116249900000001,2173
4.1187499,2014
4.1212499000000005,1661
4.123749900000001,1421
4.1262499,1480
4.128749900000001,1774
4.1312499,2077
4.133749900000001,2128
4.1362499,1862
4.1387499000000005,1508
4.1412499,1342
4.1437499,1501
4.146249900000001,1824
4.1487499,2048
4.151249900000001,1962
4.1537499,1656
4.156249900000001,1350
4.1587499,1306
4.1612499000000005,1540
4.1637499,1869
4.1662499,2023
4.168749900000001,1851
4.1712499,1501
4.173749900000001,1271
4.1762499,1342
4.178749900000001,1643
4.1812499,1943
4.1837499000000005,1988
4.186249900000001,1724
4.1887499,1385
4.191249900000001,1256
4.1937499,1434
4.196249900000001,1777
4.1987499,2025
4.2012499000000005,1957
4.2037499,1630
4.2062499,1329
4.208749900000001,1300
4.2112499,1545
4.213749900000001,1875
4.2162499,2031
4.218749900000001,1857
4.2212499,1506
4.2237499000000005,1277
4.2262499,1356
4.2287499,1666
4.231249900000001,1985
4.2337499,2041
4.236249900000001,1775
4.2387499,1427
4.241249900000001,1292
4.2437499,1456
4.2462499000000005,1790
4.248749900000001,2027
4.2512499,1952
4.253749900000001,1625
4.2562499,1330
4.258749900000001,1310
4.2612499,1566
4.2637499000000005,1911
4.2662499,2068
4.2687499,1890
4.271249900000001,1537
4.2737499,1311
4.276249900000001,1395
4.2787499,1706
4.281249900000001,2017
4.2837499,2060
4.2862499000000005,1790
4.288749900000001,1450
4.2912499,1326
4.293749900000001,1501
4.2962499,1841
4.298749900000001,2081
4.3012499,2006
4.303749900000001,1683
4.3062499,1397
4.3087499000000005,1385
4.311249900000001,1646
4.3137499,1991
4.316249900000001,2147
4.3187499,1969
4.321249900000001,1619
4.3237499,1395
4.3262499000000005,1472
4.3287499,1769
4.3312499,2057
4.333749900000001,2080
4.3362499,1793
4.338749900000001,1448
4.3412499,1322
4.343749900000001,1500
4.3462499,1836
4.3487499000000005,2067
4.351249900000001,1975
4.3537499,1635
4.356249900000001,1347
4.3587499,1343
4.361249900000001,1608
4.3637499,1943
4.366249900000001,2078
4.3687499,1882
4.3712499000000005,1522
4.373749900000001,1303
4.3762499,1395
4.378749900000001,1706
4.3812499,2002
4.383749900000001,2030
4.3862499,1753
4.3887499000000005,1421
4.3912499,1313
4.3937499,1498
4.396249900000001,1833
4.3987499,2054
4.401249900000001,1957
4.4037499,1625
4.406249900000001,1358
4.4087499,1401
4.4112499000000005,1743
4.413749900000001,2191
4.4162499,2473
4.418749900000001,2457
4.4212499,2292
4.423749900000001,2254
4.4262499,2473
4.428749900000001,2821
4.4312499,3035
4.4337499000000005,2885
4.436249900000001,2375
4.4387499,1783
4.441249900000001,1409
4.4437499,1351
4.446249900000001,1530
4.4487499,1688
4.4512499000000005,1609
4.4537499,1335
4.4562499,1127
4.458749900000001,1198
4.4612499,1511
4.463749900000001,1867
4.4662499,2007
4.468749900000001,1812
4.4712499,1472
4.4737499000000005,1284
4.476249900000001,1401
4.4787499,1730
4.481249900000001,2028
4.4837499,2044
4.486249900000001,1757
4.4887499,1424
4.491249900000001,1324
4.4937499,1519
4.4962499000000005,1862
4.498749900000001,2081
4.5012499,1981
4.503749900000001,1648
4.5062499,1372
4.508749900000001,1385
4.5112499,1659
4.5137499000000005,1994
4.5162499,2118
4.5187499,1912
4.521249900000001,1564
4.5237499,1368
4.526249900000001,1479
4.5287499,1799
4.531249900000001,2086
4.5337499,2094
4.5362499000000005,1804
4.538749900000001,1474
4.5412499,1377
4.543749900000001,1579
4.5462499,1923
4.548749900000001,2138
4.5512499,2030
4.553749900000001,1693
4.5562499,1417
4.5587499000000005,1434
4.561249900000001,1708
4.5637499,2036
4.566249900000001,2147
4.5687499,1936
4.571249900000001,1590
4.5737499,1401
4.5762499000000005,1513
4.5787499,1841
4.5812499,2143
4.583749900000001,2152
4.5862499,1859
4.588749900000001,1529
4.5912499,1442
4.593749900000001,1650
4.5962499,1998
4.5987499000000005,2207
4.601249900000001,2091
4.6037499,1748
4.606249900000001,1479
4.6087499,1503
4.611249900000001,1786
4.6137499,2126
4.616249900000001,2239
4.6187499,2006
4.6212499000000005,1659
4.623749900000001,1498
4.6262499,1621
4.628749900000001,1949
4.6312499,2236
4.633749900000001,2239
4.6362499,1944
4.6387499000000005,1622
4.6412499,1545
4.6437499,1757
4.646249900000001,2106
4.6487499,2310
4.651249900000001,2188
4.6537499,1851
4.656249900000001,1582
4.6587499,1611
4.6612499000000005,1902
4.663749900000001,2239
4.6662499,2342
4.668749900000001,2117
4.6712499,1757
4.673749900000001,1572
4.6762499,1688
4.678749900000001,2010
4.6812499,2280
4.6837499000000005,2259
4.686249900000001,1946
4.6887499,1604
4.691249900000001,1508
4.6937499,1703
4.696249900000001,2028
4.6987499,2209
4.7012499000000005,2060
4.7037499,1693
4.7062499,1413
4.708749900000001,1432
4.7112499,1703
4.713749900000001,2009
4.7162499,2083
4.718749900000001,1835
4.7212499,1472
4.7237499000000005,1300
4.726249900000001,1437
4.7287499,1766
4.731249900000001,2036
4.7337499,2010
4.736249900000001,1698
4.7387499,1369
4.741249900000001,1292
4.7437499,1503
4.7462499000000005,1840
4.748749900000001,2038
4.7512499,1914
4.753749900000001,1571
4.7562499,1311
4.758749900000001,1350
4.7612499,1635
4.7637499000000005,1957
4.7662499,2048
4.7687499,1809
4.771249900000001,1458
4.7737499,1285
4.776249900000001,1427
4.7787499,1757
4.781249900000001,2023
4.7837499,1990
4.7862499000000005,1677
4.788749900000001,1363
4.7912499,1311
4.793749900000001,1548
4.7962499,1899
4.798749900000001,2088
4.8012499,1944
4.803749900000001,1593
4.8062499,1327
4.8087499000000005,1353
4.811249900000001,1622
4.8137499,1930
4.816249900000001,2022
4.8187499,1801
4.821249900000001,1471
4.8237499,1314
4.8262499000000005,1463
4.8287499,1790
4.8312499,2056
4.833749900000001,2025
4.8362499,1709
4.838749900000001,1390
4.8412499,1327
4.843749900000001,1550
4.8462499,1888
4.8487499000000005,2065
4.851249900000001,1914
4.8537499,1563
4.856249900000001,1308
4.8587499,1353
4.861249900000001,1633
4.8637499,1952
4.866249900000001,2041
4.8687499,1803
4.8712499000000005,1458
4.873749900000001,1301
4.8762499,1451
4.878749900000001,1785
4.8812499,2048
4.883749900000001,2004
4.8862499,1680
4.8887499000000005,1355
4.8912499,1293
4.8937499,1522
4.896249900000001,1862
4.8987499,2049
4.901249900000001,1906
4.9037499,1567
4.906249900000001,1324
4.9087499,1374
4.9112499000000005,1664
4.913749900000001,1972
4.9162499,2035
4.918749900000001,1782
4.9212499,1435
4.923749900000001,1284
4.9262499,1440
4.928749900000001,1775
4.9312499,2035
4.9337499000000005,1993
4.936249900000001,1675
4.9387499,1366
4.941249900000001,1321
4.9437499,1553
4.946249900000001,1893
4.9487499,2062
4.9512499000000005,1901
4.9537499,1558
4.9562499,1324
4.958749900000001,1390
4.9612499,1690
4.963749900000001,2001
4.9662499,2060
4.968749900000001,1801
4.9712499,1461
4.9737499000000005,1319
4.976249900000001,1487
4.9787499,1828
4.981249900000001,2086
4.9837499,2035
4.986249900000001,1706
4.9887499,1400
4.991249900000001,1361
4.9937499,1608
4.9962499000000005,1954
4.998749900000001,2123
5.0012499,1965
5.003749900000001,1621
5.0062499,1392
5.008749900000001,1474
5.0112499,1778
5.0137499000000005,2081
5.0162499,2122
5.0187499,1844
5.021249900000001,1484
5.0237499,1324
5.026249900000001,1471
5.0287499,1798
5.031249900000001,2044
5.0337499,1988
5.0362499000000005,1662
5.038749900000001,1350
5.0412499,1306
5.043749900000001,1542
5.0462499,1882
5.048749900000001,2039
5.0512499,1867
5.053749900000001,1514
5.0562499,1285
5.0587499000000005,1363
5.061249900000001,1670
5.0637499,1980
5.066249900000001,2031
5.0687499,1769
5.071249900000001,1429
5.0737499,1292
5.0762499000000005,1455
5.0787499,1783
5.0812499,2020
5.083749900000001,1949
5.0862499,1619
5.088749900000001,1314
5.0912499,1289
5.093749900000001,1585
5.0962499,1969
5.0987499000000005,2184
5.101249900000001,2117
5.1037499,1914
5.106249900000001,1857
5.1087499,2099
5.111249900000001,2539
5.1137499,2924
5.116249900000001,2977
5.1187499,2624
5.1212499000000005,2112
5.123749900000001,1757
5.1262499,1682
5.128749900000001,1775
5.1312499,1809
5.133749900000001,1624
5.1362499,1268
5.1387499000000005,1007
5.1412499,1039
5.1437499,1342
5.146249900000001,1725
5.1487499,1904
5.151249900000001,1741
5.1537499,1413
5.156249900000001,1214
5.1587499,1311
5.1612499000000005,1630
5.163749900000001,1936
5.1662499,1975
5.168749900000001,1711
5.1712499,1380
5.173749900000001,1264
5.1762499,1445
5.178749900000001,1780
5.1812499,2012
5.1837499000000005,1932
5.186249900000001,1596
5.1887499,1301
5.191249900000001,1295
5.1937499,1554
5.196249900000001,1893
5.1987499,2033
5.2012499000000005,1843
5.2037499,1493
5.2062499,1282
5.208749900000001,1374
5.2112499,1687
5.213749900000001,1981
5.2162499,2012
5.218749900000001,1748
5.2212499,1419
5.2237499000000005,1301
5.226249900000001,1472
5.2287499,1804
5.231249900000001,2028
5.2337499,1944
5.236249900000001,1621
5.2387499,1337
5.241249900000001,1337
5.2437499,1608
5.2462499000000005,1946
5.248749900000001,2081
5.2512499,1882
5.253749900000001,1525
5.2562499,1316
5.258749900000001,1414
5.2612499,1735
5.2637499000000005,2039
5.2662499,2073
5.2687499,1795
5.271249900000001,1456
5.2737499,1339
5.276249900000001,1525
5.2787499,1873
5.281249900000001,2112
5.2837499,2022
5.2862499000000005,1687
5.288749900000001,1400
5.2912499,1400
5.293749900000001,1670
5.2962499,2012
5.298749900000001,2149
5.3012499,1959
5.303749900000001,1611
5.3062499,1411
5.3087499000000005,1522
5.311249900000001,1841
5.3137499,2141
5.316249900000001,2159
5.3187499,1875
5.321249900000001,1548
5.3237499,1455
5.3262499000000005,1654
5.3287499,2004
5.3312499,2234
5.333749900000001,2141
5.3362499,1811
5.338749900000001,1532
5.3412499,1527
5.343749900000001,1786
5.3462499,2115
5.3487499000000005,2238
5.351249900000001,2020
5.3537499,1664
5.356249900000001,1474
5.3587499,1590
5.361249900000001,1915
5.3637499,2197
5.366249900000001,2191
5.3687499,1880
5.3712499000000005,1532
5.373749900000001,1416
5.3762499,1596
5.378749900000001,1920
5.3812499,2117
5.383749900000001,1994
5.3862499,1637
5.3887499000000005,1337
5.3912499,1334
5.3937499,1598
5.396249900000001,1919
5.3987499,2027
5.401249900000001,1804
5.4037499,1438
5.406249900000001,1234
5.4087499,1332
5.4112499000000005,1646
5.413749900000001,1925
5.4162499,1927
5.418749900000001,1629
5.4212499,1292
5.423749900000001,1197
5.4262499,1401
5.428749900000001,1749
5.4312499,1964
5.4337499000000005,1846
5.436249900000001,1498
5.4387499,1216
5.441249900000001,1223
5.4437499,1496
5.446249900000001,1830
5.4487499,1954
5.4512499000000005,1738
5.4537499,1380
5.4562499,1184
5.458749900000001,1293
5.4612499,1621
5.463749900000001,1914
5.4662499,1919
5.468749900000001,1619
5.4712499,1281
5.4737499000000005,1184
5.476249900000001,1392
5.4787499,1743
5.481249900000001,1961
5.4837499,1853
5.486249900000001,1513
5.4887499,1235
5.491249900000001,1248
5.4937499,1527
5.4962499000000005,1867
5.498749900000001,1983
5.5012499,1772
5.503749900000001,1430
5.5062499,1240
5.508749900000001,1345
5.5112499,1659
5.5137499000000005,1941
5.5162499,1932
5.5187499,1630
5.521249900000001,1298
5.5237499,1216
5.526249900000001,1427
5.5287499,1772
5.531249900000001,1983
5.5337499,1869
5.5362499000000005,1524
5.538749900000001,1248
5.5412499,1263
5.543749900000001,1533
5.5462499,1849
5.548749900000001,1954
5.5512499,1735
5.553749900000001,1390
5.5562499,1213
5.5587499000000005,1348
5.561249900000001,1683
5.5637499,1964
5.566249900000001,1936
5.5687499,1625
5.571249900000001,1306
5.5737499,1253
5.5762499000000005,1456
5.5787499,1796
5.5812499,1994
5.583749900000001,1857
5.5862499,1513
5.588749900000001,1247
5.5912499,1276
5.593749900000001,1564
5.5962499,1898
5.5987499000000005,1994
5.601249900000001,1761
5.6037499,1401
5.606249900000001,1224
5.6087499,1356
5.611249900000001,1690
5.6137499,1972
5.616249900000001,1965
5.6187499,1656
5.6212499000000005,1326
5.623749900000001,1253
5.6262499,1477
5.628749900000001,1824
5.6312499,2019
5.633749900000001,1885
5.6362499,1540
5.6387499000000005,1284
5.6412499,1330
5.6437499,1627
5.646249900000001,1954
5.6487499,2039
5.651249900000001,1791
5.6537499,1434
5.656249900000001,1276
5.6587499,1435
5.6612499000000005,1796
5.663749900000001,2085
5.6662499,2060
5.668749900000001,1741
5.6712499,1406
5.673749900000001,1326
5.6762499,1532
5.678749900000001,1862
5.6812499,2044
5.6837499000000005,1894
5.686249900000001,1537
5.6887499,1271
5.691249900000001,1310
5.6937499,1608
5.696249900000001,1940
5.6987499,2033
5.7012499000000005,1786
5.7037499,1434
5.7062499,1264
5.708749900000001,1409
5.7112499,1746
5.713749900000001,2022
5.7162499,1981
5.718749900000001,1659
5.7212499,1329
5.7237499000000005,1266
5.726249900000001,1521
5.7287499,1846
5.731249900000001,2038
5.7337499,1893
5.736249900000001,1543
5.7387499,1282
5.741249900000001,1324
5.7437499,1621
5.7462499000000005,1959
5.748749900000001,2072
5.7512499,1873
5.753749900000001,1600
5.7562499,1529
5.758749900000001,1780
5.7612499,2239
5.7637499000000005,2618
5.7662499,2687
5.7687499,2449
5.771249900000001,2131
5.7737499,1993
5.776249900000001,2077
5.7787499,2251
5.781249900000001,2246
5.7837499,1902
5.7862499000000005,1388
5.788749900000001,1042
5.7912499,1066
5.793749900000001,1385
5.7962499,1749
5.798749900000001,1880
5.8012499,1682
5.803749900000001,1361
5.8062499,1224
5.8087499000000005,1382
5.811249900000001,1725
5.8137499,1999
5.816249900000001,1967
5.8187499,1651
5.821249900000001,1330
5.8237499,1284
5.8262499000000005,1537
5.8287499,1894
5.8312499,2080
5.833749900000001,1923
5.8362499,1558
5.838749900000001,1303
5.8412499,1359
5.843749900000001,1670
5.8462499,1998
5.8487499000000005,2067
5.851249900000001,1807
5.8537499,1455
5.856249900000001,1306
5.8587499,1464
5.861249900000001,1806
5.8637499,2062
5.866249900000001,2012
5.8687499,1691
5.8712499000000005,1382
5.873749900000001,1342
5.8762499,1587
5.878749900000001,1935
5.8812499,2107
5.883749900000001,1938
5.8862499,1579
5.8887499000000005,1343
5.8912499,1424
5.8937499,1735
5.896249900000001,2054
5.8987499,2114
5.901249900000001,1846
5.9037499,1492
5.906249900000001,1343
5.9087499,1506
5.9112499000000005,1851
5.913749900000001,2112
5.9162499,2052
5.918749900000001,1724
5.9212499,1408
5.923749900000001,1368
5.9262499,1621
5.928749900000001,1980
5.9312499,2160
5.9337499000000005,2001
5.936249900000001,1646
5.9387499,1403
5.941249900000001,1463
5.9437499,1764
5.946249900000001,2073
5.9487499,2133
5.9512499000000005,1883
5.9537499,1553
5.9562499,1422
5.958749900000001,1598
5.9612499,1946
5.963749900000001,2194
5.9662499,2131
5.968749900000001,1806
5.9712499,1501
5.9737499000000005,1472
5.976249900000001,1733
5.9787499,2089
5.981249900000001,2259
5.9837499,2086
5.986249900000001,1730
5.9887499,1496
5.991249900000001,1575
5.9937499,1893
5.9962499000000005,2204
5.998749900000001,2252
6.0012499,1981
6.003749900000001,1627
6.0062499,1484
6.008749900000001,1651
6.0112499,2002
6.0137499000000005,2249
6.016249900000001,2173
6.0187499,1830
6.021249900000001,1516
6.0237499,1480
6.026249900000001,1719
6.0287499,2051
6.031249900000001,2188
6.0337499,1985
6.0362499000000005,1606
6.038749900000001,1358
6.0412499,1463
6.043749900000001,1778
6.0462499,2056
6.048749900000001,2088
6.0512499,1798
6.053749900000001,1437
6.0562499,1292
6.0587499000000005,1463
6.061249900000001,1806
6.0637499,2046
6.066249900000001,1967
6.0687499,1625
6.071249900000001,1313
6.0737499,1289
6.0762499000000005,1548
6.078749900000001,1893
6.0812499,2044
6.083749900000001,1851
6.0862499,1492
6.088749900000001,1268
6.0912499,1364
6.093749900000001,1693
6.0962499,2009
6.0987499000000005,2048
6.101249900000001,1761
6.1037499,1409
6.106249900000001,1279
6.1087499,1467
6.111249900000001,1819
6.1137499,2062
6.116249900000001,1978
6.1187499,1637
6.1212499000000005,1335
6.123749900000001,1321
6.1262499,1585
6.128749900000001,1930
6.1312499,2078
6.133749900000001,1890
6.1362499,1532
6.1387499000000005,1313
6.141249900000001,1406
6.1437499,1727
6.146249900000001,2033
6.1487499,2065
6.151249900000001,1780
6.1537499,1434
6.156249900000001,1310
6.1587499,1493
6.1612499000000005,1830
6.163749900000001,2052
6.1662499,1946
6.168749900000001,1596
6.1712499,1308
6.173749900000001,1314
6.1762499,1587
6.178749900000001,1936
6.1812499,2081
6.1837499000000005,1880
6.186249900000001,1509
6.1887499,1281
6.191249900000001,1371
6.1937499,1687
6.196249900000001,1985
6.1987499,2004
6.2012499000000005,1704
6.203749900000001,1353
6.2062499,1240
6.208749900000001,1437
6.2112499,1791
6.213749900000001,2025
6.2162499,1930
6.218749900000001,1582
6.2212499,1277
6.2237499000000005,1274
6.226249900000001,1546
6.2287499,1888
6.231249900000001,2020
6.2337499,1811
6.236249900000001,1443
6.2387499,1224
6.241249900000001,1330
6.2437499,1662
6.2462499000000005,1975
6.248749900000001,2006
6.2512499,1712
6.253749900000001,1366
6.2562499,1245
6.258749900000001,1434
6.2612499,1788
6.2637499000000005,2028
6.266249900000001,1938
6.2687499,1600
6.271249900000001,1310
6.2737499,1319
6.276249900000001,1595
6.2787499,1940
6.281249900000001,2078
6.2837499,1880
6.2862499000000005,1525
6.288749900000001,1322
6.2912499,1427
6.293749900000001,1743
6.2962499,2023
6.298749900000001,2012
6.3012499,1695
6.303749900000001,1343
6.3062499,1245
6.3087499000000005,1453
6.311249900000001,1803
6.3137499,2022
6.316249900000001,1901
6.3187499,1554
6.321249900000001,1266
6.3237499,1271
6.3262499000000005,1542
6.328749900000001,1875
6.3312499,1993
6.333749900000001,1772
6.3362499,1405
6.338749900000001,1202
6.3412499,1318
6.343749900000001,1646
6.3462499,1927
6.3487499000000005,1917
6.351249900000001,1612
6.3537499,1282
6.356249900000001,1195
6.3587499,1405
6.361249900000001,1753
6.3637499,1961
6.366249900000001,1832
6.3687499,1479
6.3712499000000005,1203
6.373749900000001,1253
6.3762499,1598
6.378749900000001,2022
6.3812499,2238
6.383749900000001,2128
6.3862499,1873
6.3887499000000005,1774
6.391249900000001,1970
6.3937499,2339
6.396249900000001,2589
6.3987499,2478
6.401249900000001,2014
6.4037499,1487
6.406249900000001,1194
6.4087499,1223
6.4112499000000005,1461
6.413749900000001,1637
6.4162499,1538
6.418749900000001,1235
6.4212499,1013
6.423749900000001,1082
6.4262499,1403
6.428749900000001,1761
6.4312499,1888
6.4337499000000005,1672
6.436249900000001,1318
6.4387499,1135
6.441249900000001,1269
6.4437499,1611
6.446249900000001,1902
6.4487499,1896
6.4512499000000005,1592
6.453749900000001,1258
6.4562499,1174
6.458749900000001,1388
6.4612499,1740
6.463749900000001,1952
6.4662499,1827
6.468749900000001,1472
6.4712499,1192
6.4737499000000005,1223
6.476249900000001,1521
6.4787499,1864
6.481249900000001,1970
6.4837499,1732
6.486249900000001,1359
6.4887499,1166
6.491249900000001,1298
6.4937499,1643
6.4962499000000005,1936
6.498749900000001,1927
6.5012499,1616
6.503749900000001,1285
6.5062499,1224
6.508749900000001,1469
6.5112499,1825
6.5137499000000005,2004
6.516249900000001,1862
6.5187499,1500
6.521249900000001,1219
6.5237499,1242
6.526249900000001,1535
6.5287499,1873
6.531249900000001,1980
6.5337499,1743
6.5362499000000005,1388
6.538749900000001,1214
6.5412499,1347
6.543749900000001,1680
6.5462499,1965
6.548749900000001,1951
6.5512499,1646
6.553749900000001,1314
6.5562499,1237
6.5587499000000005,1464
6.561249900000001,1817
6.5637499,2014
6.566249900000001,1882
6.5687499,1533
6.571249900000001,1269
6.5737499,1305
6.5762499000000005,1598
6.578749900000001,1933
6.5812499,2028
6.583749900000001,1780
6.5862499,1413
6.588749900000001,1243
6.5912499,1408
6.593749900000001,1767
6.5962499,2059
6.5987499000000005,2038
6.601249900000001,1720
6.6037499,1390
6.606249900000001,1319
6.6087499,1550
6.611249900000001,1906
6.6137499,2101
6.616249900000001,1959
6.6187499,1600
6.6212499000000005,1326
6.623749900000001,1361
6.6262499,1654
6.628749900000001,1991
6.6312499,2088
6.633749900000001,1849
6.6362499,1493
6.6387499000000005,1314
6.641249900000001,1448
6.6437499,1775
6.646249900000001,2036
6.6487499,1988
6.651249900000001,1648
6.6537499,1303
6.656249900000001,1239
6.6587499,1471
6.6612499000000005,1815
6.663749900000001,1996
6.6662499,1828
6.668749900000001,1459
6.6712499,1194
6.673749900000001,1234
6.6762499,1525
6.678749900000001,1843
6.6812499,1915
6.6837499000000005,1654
6.686249900000001,1287
6.6887499,1118
6.691249900000001,1264
6.6937499,1604
6.696249900000001,1870
6.6987499,1828
6.7012499000000005,1506
6.703749900000001,1177
6.7062499,1115
6.708749900000001,1347
6.7112499,1699
6.713749900000001,1893
6.7162499,1751
6.718749900000001,1393
6.7212499,1134
6.7237499000000005,1181
6.726249900000001,1490
6.7287499,1824
6.731249900000001,1911
6.7337499,1662
6.736249900000001,1306
6.7387499,1144
6.741249900000001,1292
6.7437499,1633
6.7462499000000005,1898
6.748749900000001,1856
6.7512499,1532
6.753749900000001,1210
6.7562499,1155
6.758749900000001,1393
6.7612499,1741
6.7637499000000005,1922
6.766249900000001,1766
6.7687499,1408
6.771249900000001,1156
6.7737499,1214
6.776249900000001,1519
6.7787499,1835
6.781249900000001,1904
6.7837499,1648
6.7862499000000005,1293
6.788749900000001,1142
6.7912499,1300
6.793749900000001,1643
6.7962499,1894
6.798749900000001,1828
6.8012499,1490
6.803749900000001,1174
6.8062499,1140
6.8087499000000005,1395
6.811249900000001,1754
6.8137499,1932
6.816249900000001,1754
6.8187499,1385
6.821249900000001,1139
6.8237499,1206
6.8262499000000005,1517
6.828749900000001,1840
6.8312499,1906
6.833749900000001,1646
6.8362499,1289
6.838749900000001,1139
6.8412499,1298
6.843749900000001,1646
6.8462499,1911
6.8487499000000005,1864
6.851249900000001,1546
6.8537499,1239
6.856249900000001,1194
6.8587499,1426
6.861249900000001,1761
6.8637499,1925
6.866249900000001,1753
6.8687499,1397
6.8712499000000005,1166
6.873749900000001,1242
6.8762499,1561
6.878749900000001,1882
6.8812499,1941
6.883749900000001,1679
6.8862499,1326
6.8887499000000005,1187
6.891249900000001,1361
6.8937499,1709
6.896249900000001,1967
6.8987499,1907
6.901249900000001,1587
6.9037499,1287
6.906249900000001,1263
6.9087499,1521
6.9112499000000005,1865
6.913749900000001,2019
6.9162499,1825
6.918749900000001,1445
6.9212499,1189
6.923749900000001,1247
6.9262499,1556
6.928749900000001,1872
6.9312499,1927
6.9337499000000005,1654
6.936249900000001,1298
6.9387499,1156
6.941249900000001,1322
6.9437499,1669
6.946249900000001,1922
6.9487499,1853
6.9512499000000005,1519
6.953749900000001,1210
6.9562499,1176
6.958749900000001,1429
6.9612499,1777
6.963749900000001,1935
6.9662499,1753
6.968749900000001,1392
6.9712499,1155
6.9737499000000005,1234
6.976249900000001,1577
6.9787499,1872
6.981249900000001,1888
6.9837499,1629
6.986249900000001,1284
6.9887499,1168
6.991249900000001,1366
6.9937499,1761
6.9962499000000005,2086
6.998749900000001,2115
7.0012499,1911
7.003749900000001,1749
7.0062499,1875
7.008749900000001,2252
7.0112499,2694
7.0137499000000005,2864
7.016249900000001,2600
7.0187499,2081
7.021249900000001,1646
7.0237499,1504
7.026249900000001,1595
7.0287499,1703
7.031249900000001,1622
7.0337499,1305
7.0362499000000005,981
7.038749900000001,912
7.0412499,1158
7.043749900000001,1563
7.0462499,1841
7.048749900000001,1783
7.0512499,1455
7.053749900000001,1156
7.0562499,1140
7.0587499000000005,1408
7.061249900000001,1761
7.0637499,1917
7.066249900000001,1728
7.0687499,1368
7.071249900000001,1148
7.0737499,1237
7.0762499000000005,1556
7.078749900000001,1856
7.0812499,1888
7.083749900000001,1609
7.0862499,1272
7.088749900000001,1155
7.0912499,1334
7.093749900000001,1670
7.0962499,1894
7.0987499000000005,1801
7.101249900000001,1469
7.1037499,1192
7.106249900000001,1195
7.1087499,1464
7.111249900000001,1798
7.1137499,1928
7.116249900000001,1737
7.1187499,1390
7.1212499000000005,1182
7.123749900000001,1279
7.1262499,1600
7.128749900000001,1898
7.1312499,1925
7.133749900000001,1641
7.1362499,1293
7.1387499000000005,1176
7.141249900000001,1366
7.1437499,1714
7.146249900000001,1954
7.1487499,1869
7.151249900000001,1530
7.1537499,1235
7.156249900000001,1227
7.1587499,1493
7.1612499000000005,1828
7.163749900000001,1959
7.1662499,1759
7.168749900000001,1408
7.1712499,1202
7.173749900000001,1305
7.1762499,1633
7.178749900000001,1933
7.1812499,1951
7.1837499000000005,1666
7.186249900000001,1332
7.1887499,1232
7.191249900000001,1432
7.1937499,1783
7.196249900000001,2015
7.1987499,1922
7.2012499000000005,1585
7.203749900000001,1297
7.2062499,1297
7.208749900000001,1567
7.2112499,1906
7.213749900000001,2043
7.2162499,1841
7.218749900000001,1487
7.2212499,1281
7.2237499000000005,1392
7.226249900000001,1725
7.2287499,2030
7.231249900000001,2044
7.2337499,1748
7.236249900000001,1405
7.2387499,1295
7.241249900000001,1488
7.2437499,1835
7.2462499000000005,2065
7.248749900000001,1967
7.2512499,1625
7.253749900000001,1335
7.2562499,1335
7.258749900000001,1604
7.2612499,1927
7.2637499000000005,2028
7.266249900000001,1793
7.2687499,1411
7.271249900000001,1192
7.2737499,1287
7.276249900000001,1611
7.2787499,1904
7.281249900000001,1907
7.2837499,1595
7.2862499000000005,1234
7.288749900000001,1116
7.2912499,1301
7.293749900000001,1643
7.2962499,1851
7.298749900000001,1733
7.3012499,1377
7.303749900000001,1084
7.3062499,1081
7.3087499000000005,1347
7.311249900000001,1682
7.3137499,1807
7.316249900000001,1598
7.3187499,1235
7.321249900000001,1029
7.3237499,1137
7.3262499000000005,1459
7.328749900000001,1741
7.3312499,1740
7.333749900000001,1450
7.3362499,1124
7.338749900000001,1042
7.3412499,1253
7.343749900000001,1603
7.3462499,1812
7.3487499000000005,1691
7.351249900000001,1335
7.3537499,1048
7.356249900000001,1063
7.3587499,1345
7.361249900000001,1680
7.3637499,1793
7.366249900000001,1569
7.3687499,1200
7.3712499000000005,1002
7.373749900000001,1118
7.3762499,1445
7.378749900000001,1730
7.3812499,1728
7.383749900000001,1430
7.3862499,1102
7.3887499000000005,1016
7.391249900000001,1221
7.3937499,1561
7.396249900000001,1759
7.3987499,1643
7.401249900000001,1298
7.4037499,1024
7.406249900000001,1047
7.4087499,1327
7.4112499000000005,1659
7.413749900000001,1764
7.4162499,1533
7.418749900000001,1169
7.4212499,976
7.423749900000001,1098
7.4262499,1429
7.428749900000001,1711
7.4312499,1699
7.4337499000000005,1390
7.436249900000001,1052
7.4387499,963
7.441249900000001,1173
7.4437499,1514
7.446249900000001,1720
7.4487499,1571
7.4512499000000005,1213
7.453749900000001,949
7.4562499,978
7.458749900000001,1263
7.4612499,1598
7.463749900000001,1703
7.4662499,1474
7.468749900000001,1110
7.4712499,920
7.4737499000000005,1045
7.476249900000001,1377
7.4787499,1659
7.481249900000001,1648
7.4837499,1334
7.486249900000001,1000
7.4887499,918
7.491249900000001,1139
7.4937499,1493
7.4962499000000005,1698
7.498749900000001,1571
7.5012499,1216
7.503749900000001,944
7.5062499,973
7.508749900000001,1260
7.5112499,1590
7.5137499000000005,1693
7.516249900000001,1466
7.5187499,1108
7.521249900000001,929
7.5237499,1052
7.526249900000001,1379
7.5287499,1643
7.531249900000001,1603
7.5337499,1268
7.5362499000000005,918
7.538749900000001,823
7.5412499,1024
7.543749900000001,1374
7.5462499,1579
7.548749900000001,1437
7.5512499,1076
7.553749900000001,804
7.5562499,833
7.5587499000000005,1118
7.561249900000001,1442
7.5637499,1529
7.566249900000001,1279
7.5687499,907
7.571249900000001,715
7.5737499,844
7.5762499000000005,1190
7.578749900000001,1485
7.5812499,1472
7.583749900000001,1153
7.5862499,823
7.588749900000001,749
7.5912499,966
7.593749900000001,1303
7.5962499,1484
7.5987499000000005,1332
7.601249900000001,976
7.6037499,728
7.606249900000001,800
7.6087499,1156
7.611249900000001,1582
7.6137499,1793
7.616249900000001,1701
7.6187499,1511
7.6212499000000005,1503
7.623749900000001,1782
7.6262499,2188
7.628749900000001,2418
7.6312499,2244
7.633749900000001,1724
7.6362499,1163
7.6387499000000005,868
7.641249900000001,862
7.6437499,1016
7.646249900000001,1089
7.6487499,910
7.651249900000001,583
7.6537499,383
7.656249900000001,488
7.6587499,834
7.6612499000000005,1205
7.663749900000001,1318
7.6662499,1086
7.668749900000001,734
7.6712499,572
7.673749900000001,713
7.6762499,1044
7.678749900000001,1308
7.6812499,1274
7.6837499000000005,952
7.686249900000001,625
7.6887499,559
7.691249900000001,783
7.6937499,1129
7.696249900000001,1308
7.6987499,1152
7.7012499000000005,787
7.703749900000001,526
7.7062499,572
7.708749900000001,881
7.7112499,1221
7.713749900000001,1306
7.7162499,1055
7.718749900000001,697
7.7212499,525
7.7237499000000005,662
7.726249900000001,994
7.7287499,1261
7.731249900000001,1219
7.7337499,892
7.736249900000001,573
7.7387499,523
7.741249900000001,758
7.743749900000001,1111
7.7462499000000005,1293
7.748749900000001,1137
7.7512499,779
7.753749900000001,531
7.7562499,586
7.758749900000001,883
7.7612499,1205
7.7637499000000005,1276
7.766249900000001,1019
7.7687499,662
7.771249900000001,502
7.7737499,650
7.776249900000001,981
7.7787499,1242
7.781249900000001,1197
7.7837499,878
7.7862499000000005,567
7.788749900000001,517
7.7912499,754
7.793749900000001,1100
7.7962499,1281
7.798749900000001,1126
7.8012499,773
7.803749900000001,528
7.806249900000001,583
7.8087499000000005,884
7.811249900000001,1208
7.8137499,1281
7.816249900000001,1028
7.8187499,681
7.821249900000001,526
7.8237499,676
7.8262499000000005,1023
7.828749900000001,1301
7.8312499,1261
7.833749900000001,939
7.8362499,625
7.838749900000001,580
7.8412499,820
7.843749900000001,1166
7.8462499,1340
7.8487499000000005,1174
7.851249900000001,813
7.8537499,565
7.856249900000001,620
7.8587499,912
7.861249900000001,1221
7.8637499,1281
7.866249900000001,1024
7.868749900000001,684
7.8712499000000005,539
7.873749900000001,688
7.8762499,1007
7.878749900000001,1243
7.8812499,1168
7.883749900000001,821
7.8862499,499
7.8887499000000005,451
7.891249900000001,679
7.8937499,1003
7.896249900000001,1148
7.8987499,952
7.901249900000001,573
7.9037499,320
7.906249900000001,368
7.9087499,663
7.9112499000000005,973
7.913749900000001,1021
7.9162499,746
7.918749900000001,370
7.9212499,248
7.923749900000001,427
7.9262499,768
7.928749900000001,989
7.931249900000001,920
7.9337499000000005,586
7.936249900000001,273
7.9387499,233
7.941249900000001,485
7.9437499,831
7.946249900000001,1000
7.9487499,829
7.9512499000000005,467
7.953749900000001,230
7.9562499,294
7.958749900000001,594
7.9612499,903
7.963749900000001,953
7.9662499,688
7.968749900000001,344
7.9712499,212
7.9737499000000005,378
7.976249900000001,715
7.9787499,957
7.981249900000001,887
7.9837499,567
7.986249900000001,267
7.9887499,233
7.991249900000001,473
7.993749900000001,812
7.9962499000000005,968
7.998749900000001,791
8.0012499,438
8.003749899999999,217
8.0062499,296
8.0087499,601
8.0112499,903
8.013749899999999,947
8.0162499,676
8.0187499,331
8.021249899999999,201
8.0237499,370
8.0262499,707
8.0287499,949
8.031249899999999,879
8.0337499,555
8.0362499,259
8.0387499,232
8.0412499,478
8.0437499,815
8.0462499,953
8.048749899999999,765
8.0512499,418
8.0537499,211
8.0562499,296
8.0587499,607
8.0612499,913
8.0637499,950
8.066249899999999,679
8.0687499,339
8.0712499,214
8.0737499,389
8.076249899999999,731
8.0787499,965
8.0812499,883
8.083749899999999,551
8.0862499,259
8.0887499,248
8.0912499,504
8.093749899999999,845
8.0962499,997
8.0987499,813
8.1012499,464
8.1037499,249
8.1062499,335
8.1087499,646
8.111249899999999,952
8.1137499,990
8.1162499,717
8.1187499,380
8.1212499,273
8.1237499,464
8.1262499,815
8.128749899999999,1055
8.1312499,976
8.1337499,647
8.1362499,362
8.138749899999999,354
8.1412499,613
8.1437499,950
8.146249899999999,1082
8.1487499,878
8.1512499,507
8.1537499,277
8.156249899999999,352
8.1587499,655
8.1612499,950
8.1637499,979
8.1662499,700
8.1687499,360
8.1712499,244
8.173749899999999,423
8.1762499,768
8.1787499,999
8.1812499,912
8.1837499,578
8.1862499,291
8.1887499,280
8.191249899999999,533
8.1937499,874
8.1962499,1031
8.1987499,847
8.201249899999999,497
8.2037499,288
8.2062499,378
8.208749899999999,689
8.2112499,981
8.2137499,999
8.2162499,712
8.218749899999999,378
8.2212499,270
8.2237499,467
8.2262499,845
8.2287499,1147
8.2312499,1166
8.2337499,978
8.236249899999999,862
8.2387499,1037
8.2412499,1475
8.2437499,1952
8.2462499,2157
8.2487499,1920
8.2512499,1416
8.253749899999999,990
8.2562499,837
8.2587499,895
8.2612499,942
8.263749899999999,776
8.2662499,394
8.2687499,46
8.271249899999999,0
8.2737499,241
8.2762499,642
8.2787499,918
8.281249899999999,858
8.2837499,549
8.2862499,283
8.2887499,294
8.2912499,567
8.2937499,905
8.2962499,1037
8.298749899999999,828
8.3012499,478
8.3037499,288
8.3062499,402
8.3087499,726
8.3112499,1026
8.3137499,1044
8.316249899999999,760
8.3187499,431
8.3212499,335
8.3237499,526
8.326249899999999,870
8.3287499,1090
8.3312499,982
8.333749899999999,647
8.3362499,377
8.3387499,388
8.3412499,662
8.343749899999999,997
8.3462499,1121
8.3487499,912
8.3512499,557
8.3537499,367
8.3562499,480
8.3587499,808
8.361249899999999,1102
8.3637499,1111
8.3662499,818
8.3687499,486
8.3712499,393
8.3737499,592
8.3762499,937
8.378749899999999,1153
8.3812499,1047
8.3837499,717
8.3862499,447
8.388749899999999,460
8.3912499,726
8.3937499,1055
8.396249899999999,1174
8.3987499,945
8.4012499,597
8.4037499,431
8.406249899999999,554
8.4087499,884
8.4112499,1177
8.4137499,1189
8.4162499,905
8.4187499,584
8.4212499,502
8.423749899999999,712
8.4262499,1061
8.4287499,1277
8.4312499,1169
8.4337499,834
8.4362499,570
8.4387499,592
8.441249899999999,873
8.4437499,1208
8.4462499,1334
8.4487499,1126
8.451249899999999,781
8.4537499,592
8.4562499,704
8.458749899999999,1028
8.4612499,1322
8.4637499,1342
8.4662499,1063
8.468749899999999,746
8.4712499,655
8.4737499,858
8.4762499,1200
8.4787499,1400
8.4812499,1282
8.4837499,937
8.486249899999999,667
8.4887499,689
8.4912499,963
8.4937499,1287
8.4962499,1392
8.4987499,1163
8.5012499,799
8.503749899999999,599
8.5062499,704
8.5087499,1008
8.5112499,1272
8.513749899999999,1247
8.5162499,936
8.5187499,607
8.521249899999999,515
8.5237499,715
8.5262499,1047
8.5287499,1239
8.531249899999999,1103
8.5337499,750
8.5362499,475
8.5387499,494
8.5412499,773
8.5437499,1102
8.5462499,1208
8.548749899999999,979
8.5512499,628
8.5537499,447
8.5562499,575
8.5587499,902
8.5612499,1179
8.5637499,1166
8.566249899999999,865
8.5687499,541
8.5712499,468
8.5737499,684
8.5762499,1034
8.5787499,1237
8.5812499,1111
8.583749899999999,771
8.5862499,509
8.5887499,534
8.5912499,815
8.593749899999999,1142
8.5962499,1242
8.5987499,1016
8.6012499,668
8.6037499,491
8.6062499,613
8.6087499,934
8.611249899999999,1208
8.6137499,1195
8.6162499,899
8.6187499,581
8.6212499,504
8.6237499,713
8.6262499,1050
8.628749899999999,1243
8.6312499,1118
8.6337499,792
8.6362499,557
8.6387499,599
8.6412499,881
8.6437499,1194
8.646249899999999,1279
8.6487499,1037
8.6512499,683
8.6537499,504
8.656249899999999,634
8.6587499,960
8.6612499,1237
8.6637499,1219
8.6662499,916
8.6687499,599
8.6712499,530
8.673749899999999,746
8.6762499,1084
8.6787499,1271
8.6812499,1131
8.6837499,781
8.6862499,526
8.6887499,563
8.691249899999999,844
8.6937499,1160
8.6962499,1243
8.6987499,1011
8.7012499,673
8.7037499,518
8.7062499,665
8.708749899999999,997
8.7112499,1264
8.7137499,1234
8.7162499,921
8.718749899999999,605
8.7212499,544
8.7237499,763
8.7262499,1105
8.7287499,1293
8.7312499,1156
8.7337499,815
8.736249899999999,568
8.7387499,612
8.7412499,899
8.7437499,1224
8.7462499,1313
8.7487499,1077
8.7512499,734
8.753749899999999,578
8.7562499,726
8.7587499,1060
8.7612499,1326
8.7637499,1292
8.7662499,979
8.7687499,668
8.771249899999999,607
8.7737499,836
8.7762499,1189
8.7787499,1385
8.781249899999999,1247
8.7837499,895
8.7862499,634
8.7887499,665
8.7912499,939
8.7937499,1245
8.7962499,1314
8.798749899999999,1065
8.8012499,713
8.8037499,551
8.8062499,688
8.8087499,1008
8.8112499,1263
8.8137499,1227
8.816249899999999,918
8.8187499,609
8.8212499,554
8.8237499,776
8.8262499,1111
8.8287499,1290
8.8312499,1142
8.833749899999999,796
8.8362499,554
8.8387499,605
8.8412499,899
8.843749899999999,1211
8.8462499,1284
8.8487499,1032
8.8512499,683
8.8537499,522
8.8562499,667
8.8587499,997
8.861249899999999,1266
8.8637499,1247
8.8662499,973
8.8687499,739
8.8712499,794
8.8737499,1198
8.8762499,1693
8.878749899999999,2017
8.8812499,2019
8.8837499,1812
8.8862499,1641
8.8887499,1651
8.8912499,1795
8.8937499,1891
8.896249899999999,1714
8.8987499,1213
8.9012499,628
8.9037499,291
8.906249899999999,336
8.9087499,652
8.9112499,949
8.9137499,971
8.9162499,726
8.9187499,478
8.9212499,475
8.923749899999999,733
8.9262499,1090
8.9287499,1269
8.9312499,1111
8.9337499,762
8.9362499,517
8.9387499,586
8.941249899999999,897
8.9437499,1219
8.9462499,1287
8.9487499,1034
8.9512499,688
8.9537499,539
8.9562499,692
8.958749899999999,1026
8.9612499,1281
8.9637499,1234
8.9662499,918
8.968749899999999,618
8.9712499,578
8.9737499,812
8.9762499,1147
8.9787499,1310
8.9812499,1153
8.9837499,816
8.986249899999999,596
8.9887499,668
8.9912499,970
8.9937499,1279
8.9962499,1340
8.9987499,1086
9.0012499,749
9.003749899999999,610
9.0062499,768
9.0087499,1097
9.0112499,1340
9.0137499,1279
9.0162499,968
9.0187499,686
9.021249899999999,667
9.0237499,908
9.0262499,1243
9.0287499,1401
9.031249899999999,1234
9.0337499,886
9.0362499,662
9.0387499,729
9.0412499,1028
9.0437499,1335
9.0462499,1398
9.048749899999999,1153
9.0512499,828
9.0537499,705
9.0562499,873
9.0587499,1213
9.0612499,1456
9.0637499,1393
9.066249899999999,1074
9.0687499,783
9.0712499,757
9.0737499,1005
9.0762499,1350
9.0787499,1517
9.0812499,1353
9.083749899999999,1013
9.0862499,797
9.0887499,876
9.0912499,1182
9.093749899999999,1488
9.0962499,1543
9.0987499,1287
9.1012499,958
9.1037499,842
9.1062499,1013
9.1087499,1343
9.111249899999999,1577
9.1137499,1516
9.1162499,1203
9.1187499,916
9.1212499,899
9.1237499,1147
9.1262499,1479
9.128749899999999,1625
9.1312499,1443
9.1337499,1089
9.1362499,862
9.1387499,931
9.1412499,1227
9.1437499,1517
9.146249899999999,1545
9.1487499,1260
9.1512499,908
9.1537499,771
9.156249899999999,926
9.1587499,1245
9.1612499,1466
9.1637499,1392
9.1662499,1076
9.1687499,791
9.1712499,773
9.173749899999999,1013
9.1762499,1334
9.1787499,1467
9.1812499,1276
9.1837499,928
9.1862499,715
9.1887499,800
9.191249899999999,1103
9.1937499,1393
9.1962499,1426
9.1987499,1156
9.2012499,833
9.2037499,733
9.2062499,926
9.208749899999999,1276
9.2112499,1511
9.2137499,1414
9.2162499,1092
9.218749899999999,807
9.2212499,794
9.2237499,1045
9.2262499,1374
9.2287499,1521
9.2312499,1340
9.2337499,999
9.236249899999999,791
9.2387499,889
9.2412499,1211
9.2437499,1522
9.2462499,1561
9.2487499,1292
9.2512499,963
9.253749899999999,850
9.2562499,1028
9.2587499,1361
9.2612499,1588
9.2637499,1503
9.2662499,1177
9.2687499,895
9.271249899999999,889
9.2737499,1158
9.2762499,1501
9.2787499,1643
9.281249899999999,1455
9.2837499,1106
9.2862499,902
9.2887499,995
9.2912499,1306
9.2937499,1596
9.2962499,1621
9.298749899999999,1350
9.3012499,1021
9.3037499,916
9.3062499,1102
9.3087499,1437
9.3112499,1664
9.3137499,1587
9.316249899999999,1266
9.3187499,986
9.3212499,979
9.3237499,1242
9.3262499,1580
9.3287499,1714
9.3312499,1524
9.333749899999999,1177
9.3362499,973
9.3387499,1073
9.3412499,1384
9.343749899999999,1670
9.3462499,1677
9.3487499,1385
9.3512499,1074
9.3537499,1005
9.3562499,1195
9.3587499,1540
9.361249899999999,1764
9.3637499,1670
9.3662499,1345
9.3687499,1076
9.3712499,1084
9.3737499,1350
9.3762499,1677
9.378749899999999,1809
9.3812499,1619
9.3837499,1277
9.3862499,1084
9.3887499,1190
9.3912499,1504
9.3937499,1798
9.396249899999999,1824
9.3987499,1551
9.4012499,1223
9.4037499,1129
9.406249899999999,1334
9.4087499,1685
9.4112499,1915
9.4137499,1827
9.4162499,1503
9.4187499,1234
9.4212499,1243
9.423749899999999,1513
9.4262499,1844
9.4287499,1972
9.4312499,1766
9.4337499,1413
9.4362499,1198
9.4387499,1289
9.441249899999999,1592
9.4437499,1869
9.4462499,1877
9.4487499,1595
9.4512499,1268
9.4537499,1171
9.4562499,1356
9.458749899999999,1687
9.4612499,1901
9.4637499,1804
9.4662499,1484
9.468749899999999,1218
9.4712499,1234
9.4737499,1504
9.4762499,1827
9.4787499,1943
9.4812499,1732
9.4837499,1385
9.486249899999999,1192
9.4887499,1293
9.4912499,1598
9.4937499,1875
9.4962499,1894
9.4987499,1629
9.5012499,1316
9.503749899999999,1232
9.5062499,1435
9.5087499,1783
9.5112499,2027
9.5137499,1990
9.5162499,1759
9.5187499,1632
9.521249899999999,1806
9.5237499,2249
9.5262499,2745
9.5287499,3013
9.531249899999999,2892
9.5337499,2516
9.5362499,2173
9.5387499,2049
9.5412499,2104
9.5437499,2128
9.5462499,1899
9.548749899999999,1438
9.5512499,1019
9.5537499,918
9.5562499,1160
9.5587499,1567
9.5612499,1841
9.5637499,1786
9.566249899999999,1492
9.5687499,1247
9.5712499,1277
9.5737499,1556
9.5762499,1885
9.5787499,2004
9.5812499,1803
9.583749899999999,1469
9.5862499,1292
9.5887499,1416
9.5912499,1740
9.593749899999999,2023
9.5962499,2025
9.5987499,1735
9.6012499,1419
9.6037499,1337
9.6062499,1543
9.6087499,1877
9.611249899999999,2080
9.6137499,1964
9.6162499,1637
9.6187499,1382
9.6212499,1419
9.6237499,1708
9.6262499,2044
9.628749899999999,2157
9.6312499,1940
9.6337499,1593
9.6362499,1409
9.6387499,1529
9.6412499,1853
9.6437499,2135
9.646249899999999,2131
9.6487499,1848
9.6512499,1537
9.6537499,1463
9.656249899999999,1679
9.6587499,2022
9.6612499,2228
9.6637499,2114
9.6662499,1786
9.6687499,1535
9.6712499,1563
9.673749899999999,1836
9.6762499,2162
9.6787499,2267
9.6812499,2049
9.6837499,1706
9.6862499,1535
9.6887499,1667
9.691249899999999,1996
9.6937499,2275
9.6962499,2276
9.6987499,1994
9.7012499,1691
9.7037499,1625
9.7062499,1838
9.708749899999999,2175
9.7112499,2371
9.7137499,2254
9.7162499,1933
9.718749899999999,1677
9.7212499,1767
9.7237499,2022
9.7262499,2352
9.7287499,2457
9.7312499,2239
9.7337499,1899
9.736249899999999,1730
9.7387499,1861
9.7412499,2191
9.7437499,2470
9.7462499,2462
9.7487499,2172
9.7512499,1862
9.753749899999999,1796
9.7562499,2010
9.7587499,2344
9.7612499,2533
9.7637499,2408
9.7662499,2073
9.7687499,1822
9.771249899999999,1857
9.7737499,2138
9.7762499,2450
9.7787499,2534
9.781249899999999,2302
9.7837499,1959
9.7862499,1786
9.7887499,1907
9.7912499,2217
9.7937499,2466
9.7962499,2429
9.798749899999999,2112
9.8012499,1783
9.8037499,1704
9.8062499,1906
9.8087499,2233
9.8112499,2415
9.8137499,2280
9.816249899999999,1936
9.8187499,1672
9.8212499,1724
9.8237499,2012
9.8262499,2294
9.8287499,2378
9.8312499,2144
9.833749899999999,1804
9.8362499,1646
9.8387499,1777
9.8412499,2096
9.843749899999999,2355
9.8462499,2330
9.8487499,2035
9.8512499,1737
9.8537499,1685
9.8562499,1914
9.8587499,2257
9.861249899999999,2446
9.8637499,2310
9.8662499,1965
9.8687499,1716
9.8712499,1759
9.8737499,2046
9.8762499,2365
9.878749899999999,2447
9.8812499,2210
9.8837499,1869
9.8862499,1709
9.8887499,1844
9.8912499,2172
9.8937499,2442
9.896249899999999,2425
9.8987499,2133
9.9012499,1833
9.9037499,1777
9.906249899999999,2002
9.9087499,2342
9.9112499,2526
9.9137499,2388
9.9162499,2046
9.9187499,1798
9.9212499,1840
9.923749899999999,2120
9.9262499,2439
9.9287499,2524
9.9312499,2291
9.9337499,1952
9.9362499,1796
9.9387499,1943
9.941249899999999,2273
9.9437499,2533
9.9462499,2497
9.9487499,2197
9.9512499,1896
9.9537499,1841
9.9562499,2065
9.958749899999999,2402
9.9612499,2579
9.9637499,2436
9.9662499,2099
9.968749899999999,1862
9.9712499,1917
9.9737499,2209
9.9762499,2520
9.9787499,2595
9.9812499,2354
9.9837499,2009
9.986249899999999,1853
9.9887499,2001
9.9912499,2336
9.9937499,2597
9.9962499,2566
9.9987499,2260
10.0012499,1952
10.003749899999999,1902
10.0062499,2133
10.0087499,2470
10.0112499,2647
10.0137499,2510
10.0162499,2176
10.0187499,1940
10.021249899999999,1991
10.0237499,2280
10.0262499,2591
10.0287499,2665
10.031249899999999,2429
10.0337499,2097
10.0362499,1951
10.0387499,2102
10.0412499,2437
10.0437499,2692
10.0462499,2655
10.048749899999999,2350
10.0512499,2059
10.0537499,2023
10.0562499,2262
10.0587499,2603
10.0612499,2774
10.0637499,2624
10.066249899999999,2286
10.0687499,2048
10.0712499,2106
10.0737499,2404
10.0762499,2726
10.0787499,2808
10.0812499,2568
10.083749899999999,2230
10.0862499,2081
10.0887499,2226
10.0912499,2542
10.093749899999999,2782
10.0962499,2724
10.0987499,2404
10.1012499,2093
10.1037499,2043
10.1062499,2270
10.1087499,2599
10.111249899999999,2760
10.1137499,2600
10.1162499,2259
10.1187499,2031
10.1212499,2097
10.1237499,2399
10.1262499,2708
10.128749899999999,2769
10.1312499,2520
10.1337499,2184
10.1362499,2041
10.1387499,2193
10.1412499,2515
10.1437499,2760
10.146249899999999,2710
10.1487499,2407
10.1512499,2120
10.1537499,2086
10.156249899999999,2320
10.1587499,2649
10.1612499,2813
10.1637499,2663
10.1662499,2349
10.1687499,2180
10.1712499,2341
10.173749899999999,2766
10.1762499,3201
10.1787499,3221
10.1812499,3209
10.1837499,3190
10.1862499,3206
10.1887499,3221
10.191249899999999,3225
10.1937499,3224
10.1962499,3203
10.1987499,2898
10.2012499,2425
10.2037499,2133
10.2062499,2155
10.208749899999999,2379
10.2112499,2520
10.2137499,2399
10.2162499,2126
10.218749899999999,1964
10.2212499,2080
10.2237499,2408
10.2262499,2737
10.2287499,2811
10.2312499,2574
10.2337499,2247
10.236249899999999,2109
10.2387499,2268
10.2412499,2599
10.2437499,2844
10.2462499,2792
10.2487499,2479
10.2512499,2175
10.253749899999999,2164
10.2562499,2428
10.2587499,2763
10.2612499,2885
10.2637499,2684
10.2662499,2363
10.2687499,2155
10.271249899999999,2252
10.2737499,2568
10.2762499,2864
10.2787499,2893
10.281249899999999,2620
10.2837499,2291
10.2862499,2181
10.2887499,2349
10.2912499,2687
10.2937499,2931
10.2962499,2871
10.298749899999999,2557
10.3012499,2260
10.3037499,2230
10.3062499,2471
10.3087499,2806
10.3112499,2964
10.3137499,2798
10.316249899999999,2457
10.3187499,2241
10.3212499,2325
10.3237499,2621
10.3262499,2916
10.3287499,2963
10.3312499,2711
10.333749899999999,2386
10.3362499,2265
10.3387499,2437
10.3412499,2773
10.343749899999999,3008
10.3462499,2942
10.3487499,2628
10.3512499,2344
10.3537499,2325
10.3562499,2571
10.3587499,2902
10.361249899999999,3043
10.3637499,2868
10.3662499,2529
10.3687499,2326
10.3712499,2421
10.3737499,2737
10.3762499,3038
10.378749899999999,3085
10.3812499,2831
10.3837499,2505
10.3862499,2389
10.3887499,2562
10.3912499,2903
10.3937499,3137
10.396249899999999,3066
10.3987499,2747
10.4012499,2457
10.4037499,2434
10.406249899999999,2692
10.4087499,3029
10.4112499,3169
10.4137499,3005
10.4162499,2665
10.4187499,2449
10.4212499,2529
10.423749899999999,2832
10.4262499,3119
10.4287499,3140
10.4312499,2877
10.4337499,2549
10.4362499,2431
10.4387499,2597
10.441249899999999,2918
10.4437499,3132
10.4462499,3043
10.4487499,2713
10.4512499,2410
10.4537499,2375
10.4562499,2600
10.458749899999999,2905
10.4612499,3021
10.4637499,2831
10.4662499,2484
10.468749899999999,2268
10.4712499,2344
10.4737499,2637
10.4762499,2921
10.4787499,2943
10.4812499,2668
10.4837499,2333
10.486249899999999,2207
10.4887499,2373
10.4912499,2699
10.4937499,2921
10.4962499,2837
10.4987499,2508
10.5012499,2225
10.503749899999999,2215
10.5062499,2476
10.5087499,2816
10.5112499,2956
10.5137499,2771
10.5162499,2421
10.5187499,2207
10.521249899999999,2299
10.5237499,2623
10.5262499,2897
10.5287499,2919
10.531249899999999,2637
10.5337499,2297
10.5362499,2176
10.5387499,2355
10.5412499,2697
10.5437499,2926
10.5462499,2847
10.548749899999999,2518
10.5512499,2228
10.5537499,2218
10.5562499,2475
10.5587499,2808
10.5612499,2940
10.5637499,2747
10.566249899999999,2394
10.5687499,2180
10.5712499,2263
10.5737499,2573
10.5762499,2874
10.5787499,2908
10.5812499,2632
10.583749899999999,2297
10.5862499,2178
10.5887499,2354
10.5912499,2686
10.593749899999999,2905
10.5962499,2811
10.5987499,2481
10.6012499,2194
10.6037499,2191
10.6062499,2450
10.6087499,2777
10.611249899999999,2898
10.6137499,2699
10.6162499,2352
10.6187499,2144
10.6212499,2239
10.6237499,2550
10.6262499,2840
10.628749899999999,2864
10.6312499,2544
10.6337499,2247
10.6362499,2141
10.6387499,2323
10.6412499,2652
10.6437499,2860
10.646249899999999,2761
10.6487499,2441
10.6512499,2170
10.6537499,2172
10.656249899999999,2429
10.6587499,2753
10.6612499,2874
10.6637499,2673
10.6662499,2323
10.6687499,2117
10.6712499,2213
10.673749899999999,2526
10.6762499,2813
10.6787499,2824
10.6812499,2539
10.6837499,2207
10.6862499,2104
10.6887499,2292
10.691249899999999,2623
10.6937499,2831
10.6962499,2721
10.6987499,2386
10.7012499,2114
10.7037499,2125
10.7062499,2399
10.708749899999999,2731
10.7112499,2850
10.7137499,2640
10.7162499,2286
10.718749899999999,2085
10.7212499,2189
10.7237499,2507
10.7262499,2794
10.7287499,2810
10.7312499,2529
10.7337499,2196
10.736249899999999,2093
10.7387499,2280
10.7412499,2613
10.7437499,2826
10.7462499,2728
10.7487499,2379
10.7512499,2131
10.753749899999999,2168
10.7562499,2420
10.7587499,2739
10.7612499,2847
10.7637499,2637
10.7662499,2286
10.7687499,2091
10.771249899999999,2205
10.7737499,2536
10.7762499,2832
10.7787499,2840
10.781249899999999,2549
10.7837499,2212
10.7862499,2104
10.7887499,2286
10.7912499,2611
10.7937499,2810
10.7962499,2684
10.798749899999999,2331
10.8012499,2043
10.8037499,2044
10.8062499,2307
10.8087499,2624
10.8112499,2736
10.8137499,2524
10.816249899999999,2173
10.8187499,1983
10.8212499,2091
10.8237499,2404
10.8262499,2679
10.8287499,2678
10.8312499,2383
10.833749899999999,2051
10.8362499,1954
10.8387499,2149
10.8412499,2487
10.843749899999999,2699
10.8462499,2592
10.8487499,2255
10.8512499,1977
10.8537499,1983
10.8562499,2249
10.8587499,2571
10.861249899999999,2684
10.8637499,2479
10.8662499,2160
10.8687499,2030
10.8712499,2239
10.8737499,2686
10.8762499,3114
10.878749899999999,3208
10.8812499,3138
10.8837499,3011
10.8862499,3034
10.8887499,3193
10.8912499,3219
10.8937499,3211
10.896249899999999,3029
10.8987499,2523
10.9012499,2014
10.9037499,1785
10.906249899999999,1888
10.9087499,2147
10.9112499,2276
10.9137499,2120
10.9162499,1843
10.9187499,1719
10.9212499,1885
10.923749899999999,2239
10.9262499,2534
10.9287499,2536
10.9312499,2238
10.9337499,1907
10.9362499,1822
10.9387499,2038
10.941249899999999,2362
10.9437499,2553
10.9462499,2428
10.9487499,2094
10.9512499,1843
10.9537499,1882
10.9562499,2172
10.958749899999999,2500
10.9612499,2602
10.9637499,2373
10.9662499,2017
10.968749899999999,1830
10.9712499,1948
10.9737499,2268
10.9762499,2542
10.9787499,2531
10.9812499,2228
10.9837499,1901
10.986249899999999,1817
10.9887499,2028
10.9912499,2370
10.9937499,2568
10.9962499,2447
10.9987499,2107
11.0012499,1844
11.003749899999999,1873
11.0062499,2152
11.0087499,2475
11.0112499,2573
11.0137499,2347
11.0162499,1996
11.0187499,1812
11.021249899999999,1932
11.0237499,2254
11.0262499,2531
11.0287499,2521
11.031249899999999,2222
11.0337499,1898
11.0362499,1822
11.0387499,2044
11.0412499,2379
11.0437499,2578
11.0462499,2449
11.048749899999999,2075
11.0512499,1827
11.0537499,1859
11.0562499,2149
11.0587499,2479
11.0612499,2581
11.0637499,2360
11.066249899999999,2010
11.0687499,1832
11.0712499,1962
11.0737499,2291
11.0762499,2568
11.0787499,2555
11.0812499,2259
11.083749899999999,1944
11.0862499,1872
11.0887499,2086
11.0912499,2429
11.093749899999999,2624
11.0962499,2495
11.0987499,2152
11.1012499,1893
11.1037499,1927
11.1062499,2213
11.1087499,2539
11.111249899999999,2634
11.1137499,2405
11.1162499,2059
11.1187499,1891
11.1212499,2023
11.1237499,2347
11.1262499,2610
11.128749899999999,2587
11.1312499,2280
11.1337499,1954
11.1362499,1872
11.1387499,2073
11.1412499,2397
11.1437499,2566
11.146249899999999,2418
11.1487499,2059
11.1512499,1780
11.1537499,1796
11.156249899999999,2065
11.1587499,2371
11.1612499,2444
11.1637499,2191
11.1662499,1822
11.1687499,1638
11.1712499,1757
11.173749899999999,2073
11.1762499,2325
11.1787499,2278
11.1812499,1961
11.1837499,1645
11.1862499,1583
11.1887499,1803
11.191249899999999,2147
11.1937499,2334
11.1962499,2188
11.1987499,1833
11.2012499,1572
11.2037499,1603
11.2062499,1886
11.208749899999999,2204
11.2112499,2288
11.2137499,2046
11.2162499,1670
11.218749899999999,1525
11.2212499,1682
11.2237499,2014
11.2262499,2260
11.2287499,2238
11.2312499,1930
11.2337499,1614
11.236249899999999,1550
11.2387499,1766
11.2412499,2104
11.2437499,2286
11.2462499,2138
11.2487499,1783
11.2512499,1527
11.253749899999999,1567
11.2562499,1856
11.2587499,2183
11.2612499,2270
11.2637499,2030
11.2662499,1680
11.2687499,1522
11.271249899999999,1659
11.2737499,1990
11.2762499,2249
11.2787499,2209
11.281249899999999,1886
11.2837499,1567
11.2862499,1509
11.2887499,1738
11.2912499,2083
11.2937499,2265
11.2962499,2118
11.298749899999999,1772
11.3012499,1522
11.3037499,1563
11.3062499,1841
11.3087499,2146
11.3112499,2210
11.3137499,1957
11.316249899999999,1612
11.3187499,1466
11.3212499,1622
11.3237499,1961
11.3262499,2220
11.3287499,2176
11.3312499,1851
11.333749899999999,1530
11.3362499,1472
11.3387499,1699
11.3412499,2044
11.343749899999999,2220
11.3462499,2067
11.3487499,1717
11.3512499,1475
11.3537499,1530
11.3562499,1820
11.3587499,2130
11.361249899999999,2194
11.3637499,1938
11.3662499,1587
11.3687499,1437
11.3712499,1595
11.3737499,1925
11.3762499,2175
11.378749899999999,2126
11.3812499,1807
11.3837499,1500
11.3862499,1455
11.3887499,1687
11.3912499,2025
11.3937499,2191
11.396249899999999,2022
11.3987499,1662
11.4012499,1426
11.4037499,1496
11.406249899999999,1799
11.4087499,2114
11.4112499,2176
11.4137499,1920
11.4162499,1569
11.4187499,1417
11.4212499,1571
11.423749899999999,1904
11.4262499,2159
11.4287499,2114
11.4312499,1795
11.4337499,1487
11.4362499,1438
11.4387499,1669
11.441249899999999,2006
11.4437499,2173
11.4462499,2009
11.4487499,1656
11.4512499,1414
11.4537499,1474
11.4562499,1766
11.458749899999999,2077
11.4612499,2143
11.4637499,1896
11.4662499,1558
11.468749899999999,1409
11.4712499,1564
11.4737499,1891
11.4762499,2144
11.4787499,2101
11.4812499,1788
11.4837499,1488
11.486249899999999,1450
11.4887499,1683
11.4912499,2022
11.4937499,2184
11.4962499,2027
11.4987499,1687
11.5012499,1451
11.503749899999999,1513
11.5062499,1806
11.5087499,2123
11.5112499,2197
11.5137499,1954
11.5162499,1617
11.5187499,1474
11.521249899999999,1630
11.5237499,1961
11.5262499,2202
11.5287499,2131
11.531249899999999,1791
11.5337499,1467
11.5362499,1413
11.5387499,1641
11.5412499,1973
11.5437499,2133
11.5462499,1962
11.548749899999999,1604
11.5512499,1363
11.5537499,1422
11.5562499,1717
11.5587499,2028
11.5612499,2088
11.5637499,1827
11.566249899999999,1487
11.5687499,1353
11.5712499,1521
11.5737499,1856
11.5762499,2099
11.5787499,2031
11.5812499,1703
11.583749899999999,1393
11.5862499,1351
11.5887499,1592
11.5912499,1933
11.593749899999999,2096
11.5962499,1923
11.5987499,1569
11.6012499,1332
11.6037499,1408
11.6062499,1735
11.6087499,2104
11.611249899999999,2254
11.6137499,2131
11.6162499,1959
11.6187499,2007
11.6212499,2349
11.6237499,2832
11.6262499,3156
11.628749899999999,3074
11.6312499,2623
11.6337499,2106
11.6362499,1817
11.6387499,1795
11.6412499,1875
11.6437499,1824
11.646249899999999,1532
11.6487499,1155
11.6512499,965
11.6537499,1111
11.656249899999999,1496
11.6587499,1867
11.6612499,1954
11.6637499,1712
11.6662499,1388
11.6687499,1263
11.6712499,1430
11.673749899999999,1767
11.6762499,2012
11.6787499,1944
11.6812499,1616
11.6837499,1301
11.6862499,1303
11.6887499,1572
11.691249899999999,1885
11.6937499,2039
11.6962499,1862
11.6987499,1511
11.7012499,1287
11.7037499,1369
11.7062499,1675
11.708749899999999,1975
11.7112499,2009
11.7137499,1737
11.7162499,1398
11.718749899999999,1281
11.7212499,1463
11.7237499,1803
11.7262499,2038
11.7287499,1957
11.7312499,1624
11.7337499,1327
11.736249899999999,1310
11.7387499,1569
11.7412499,1914
11.7437499,2065
11.7462499,1885
11.7487499,1530
11.7512499,1303
11.753749899999999,1382
11.7562499,1693
11.7587499,2002
11.7612499,2048
11.7637499,1783
11.7662499,1448
11.7687499,1322
11.771249899999999,1495
11.7737499,1825
11.7762499,2057
11.7787499,1973
11.781249899999999,1648
11.7837499,1361
11.7862499,1355
11.7887499,1617
11.7912499,1961
11.7937499,2110
11.7962499,1928
11.798749899999999,1579
11.8012499,1358
11.8037499,1442
11.8062499,1751
11.8087499,2056
11.8112499,2094
11.8137499,1824
11.816249899999999,1495
11.8187499,1384
11.8212499,1575
11.8237499,1925
11.8262499,2165
11.8287499,2088
11.8312499,1757
11.833749899999999,1469
11.8362499,1458
11.8387499,1714
11.8412499,2052
11.843749899999999,2196
11.8462499,1962
11.8487499,1667
11.8512499,1456
11.8537499,1548
11.8562499,1857
11.8587499,2155
11.861249899999999,2189
11.8637499,1917
11.8662499,1575
11.8687499,1450
11.8712499,1624
11.8737499,1961
11.8762499,2186
11.878749899999999,2101
11.8812499,1762
11.8837499,1461
11.8862499,1432
11.8887499,1667
11.8912499,1983
11.8937499,2102
11.896249899999999,1888
11.8987499,1524
11.9012499,1305
11.9037499,1390
11.906249899999999,1693
11.9087499,1978
11.9112499,1990
11.9137499,1693
11.9162499,1340
11.9187499,1216
11.9212499,1392
11.923749899999999,1722
11.9262499,1941
11.9287499,1841
11.9312499,1504
11.9337499,1214
11.9362499,1210
11.9387499,1477
11.941249899999999,1814
11.9437499,1948
11.9462499,1746
11.9487499,1392
11.9512499,1185
11.9537499,1287
11.9562499,1611
11.958749899999999,1909
11.9612499,1933
11.9637499,1651
11.9662499,1314
11.9687499,1206
11.9712499,1395
11.9737499,1737
11.9762499,1965
11.9787499,1872
11.9812499,1533
11.9837499,1245
11.986249899999999,1243
11.9887499,1513
11.9912499,1851
11.9937499,1983
11.9962499,1780
11.9987499,1422
12.0012499,1213
12.003749899999999,1311
12.0062499,1627
12.0087499,1922
12.0112499,1940
12.0137499,1658
12.0162499,1327
12.0187499,1227
12.021249899999999,1419
12.0237499,1761
12.0262499,1983
12.0287499,1888
12.0312499,1554
12.0337499,1269
12.0362499,1263
12.0387499,1521
12.0412499,1844
12.0437499,1965
12.0462499,1759
12.048749899999999,1414
12.0512499,1224
12.0537499,1332
12.0562499,1651
12.0587499,1940
12.0612499,1951
12.0637499,1658
12.066249899999999,1321
12.0687499,1214
12.0712499,1411
12.0737499,1753
12.0762499,1973
12.0787499,1867
12.0812499,1522
12.083749899999999,1232
12.0862499,1234
12.0887499,1506
12.0912499,1846
12.0937499,1980
12.0962499,1780
12.0987499,1432
12.1012499,1231
12.1037499,1334
12.1062499,1650
12.1087499,1938
12.111249899999999,1944
12.1137499,1650
12.1162499,1313
12.1187499,1211
12.1212499,1405
12.1237499,1746
12.1262499,1965
12.128749899999999,1859
12.1312499,1522
12.1337499,1253
12.1362499,1274
12.1387499,1551
12.1412499,1883
12.1437499,1998
12.146249899999999,1782
12.1487499,1424
12.1512499,1226
12.1537499,1355
12.1562499,1687
12.1587499,1961
12.1612499,1941
12.1637499,1662
12.1662499,1329
12.1687499,1227
12.1712499,1427
12.173749899999999,1775
12.1762499,1996
12.1787499,1888
12.1812499,1550
12.1837499,1272
12.1862499,1284
12.1887499,1556
12.191249899999999,1883
12.1937499,1993
12.1962499,1775
12.1987499,1421
12.2012499,1231
12.2037499,1348
12.2062499,1672
12.208749899999999,1954
12.2112499,1949
12.2137499,1659
12.2162499,1345
12.2187499,1261
12.2212499,1464
12.2237499,1804
12.2262499,2020
12.2287499,1911
12.2312499,1571
12.2337499,1297
12.236249899999999,1318
12.2387499,1596
12.2412499,1928
12.2437499,2039
12.2462499,1820
12.2487499,1469
12.2512499,1279
12.253749899999999,1398
12.2562499,1727
12.2587499,2019
12.2612499,2025
12.2637499,1735
12.2662499,1416
12.2687499,1332
12.271249899999999,1538
12.2737499,1878
12.2762499,2080
12.2787499,1959
12.2812499,1621
12.2837499,1351
12.2862499,1384
12.2887499,1672
12.2912499,2010
12.2937499,2114
12.2962499,1882
12.298749899999999,1525
12.3012499,1339
12.3037499,1458
12.3062499,1775
12.3087499,2044
12.3112499,2023
12.3137499,1708
12.316249899999999,1371
12.3187499,1277
12.3212499,1479
12.3237499,1817
12.3262499,2019
12.3287499,1894
12.3312499,1548
12.333749899999999,1277
12.3362499,1300
12.3387499,1582
12.3412499,1907
12.3437499,2006
12.3462499,1775
12.3487499,1422
12.3512499,1243
12.3537499,1374
12.3562499,1703
12.3587499,1983
12.361249899999999,1969
12.3637499,1662
12.3662499,1329
12.3687499,1239
12.3712499,1435
12.3737499,1770
12.3762499,1975
12.378749899999999,1870
12.3812499,1569
12.3837499,1371
12.3862499,1498
12.3887499,1904
12.3912499,2386
12.3937499,2660
12.396249899999999,2613
12.3987499,2418
12.4012499,2330
12.4037499,2439
12.4062499,2632
12.4087499,2702
12.4112499,2446
12.4137499,1886
12.4162499,1303
12.4187499,1007
12.4212499,1084
12.423749899999999,1388
12.4262499,1621
12.4287499,1554
12.4312499,1277
12.4337499,1073
12.4362499,1137
12.4387499,1440
12.441249899999999,1772
12.4437499,1870
12.4462499,1637
12.4487499,1281
12.4512499,1105
12.4537499,1229
12.4562499,1553
12.458749899999999,1817
12.4612499,1799
12.4637499,1500
12.4662499,1184
12.4687499,1119
12.4712499,1347
12.4737499,1690
12.4762499,1885
12.4787499,1746
12.4812499,1397
12.4837499,1137
12.486249899999999,1173
12.4887499,1459
12.4912499,1775
12.4937499,1865
12.4962499,1637
12.4987499,1293
12.5012499,1126
12.503749899999999,1261
12.5062499,1595
12.5087499,1869
12.5112499,1848
12.5137499,1542
12.5162499,1218
12.5187499,1148
12.521249899999999,1368
12.5237499,1711
12.5262499,1906
12.5287499,1775
12.5312499,1430
12.5337499,1176
12.5362499,1219
12.5387499,1517
12.5412499,1843
12.5437499,1936
12.5462499,1703
12.548749899999999,1353
12.5512499,1185
12.5537499,1326
12.5562499,1661
12.5587499,1933
12.5612499,1907
12.5637499,1608
12.566249899999999,1293
12.5687499,1232
12.5712499,1458
12.5737499,1806
12.5762499,2001
12.5787499,1865
12.5812499,1524
12.583749899999999,1276
12.5862499,1327
12.5887499,1624
12.5912499,1946
12.5937499,2035
12.5962499,1798
12.5987499,1453
12.6012499,1295
12.6037499,1450
12.6062499,1790
12.6087499,2057
12.611249899999999,2025
12.6137499,1711
12.6162499,1398
12.6187499,1342
12.6212499,1601
12.6237499,1959
12.6262499,2139
12.628749899999999,1980
12.6312499,1654
12.6337499,1398
12.6362499,1443
12.6387499,1728
12.6412499,2043
12.6437499,2114
12.646249899999999,1857
12.6487499,1496
12.6512499,1330
12.6537499,1484
12.6562499,1819
12.6587499,2080
12.6612499,2033
12.6637499,1703
12.6662499,1368
12.6687499,1290
12.6712499,1504
12.673749899999999,1833
12.6762499,1999
12.6787499,1832
12.6812499,1466
12.6837499,1200
12.6862499,1235
12.6887499,1517
12.691249899999999,1827
12.6937499,1899
12.6962499,1648
12.6987499,1290
12.7012499,1129
12.7037499,1269
12.7062499,1601
12.708749899999999,1864
12.7112499,1827
12.7137499,1516
12.7162499,1202
12.7187499,1144
12.7212499,1371
12.7237499,1706
12.7262499,1882
12.7287499,1728
12.7312499,1380
12.7337499,1132
12.736249899999999,1185
12.7387499,1485
12.7412499,1804
12.7437499,1878
12.7462499,1630
12.7487499,1285
12.7512499,1139
12.753749899999999,1295
12.7562499,1632
12.7587499,1888
12.7612499,1838
12.7637499,1521
12.7662499,1210
12.7687499,1161
12.771249899999999,1397
12.7737499,1740
12.7762499,1915
12.7787499,1757
12.7812499,1403
12.7837499,1161
12.7862499,1226
12.7887499,1529
12.7912499,1836
12.7937499,1896
12.7962499,1640
12.798749899999999,1287
12.8012499,1142
12.8037499,1301
12.8062499,1646
12.8087499,1906
12.8112499,1853
12.8137499,1529
12.816249899999999,1214
12.8187499,1165
12.8212499,1393
12.8237499,1733
12.8262499,1909
12.8287499,1751
12.8312499,1397
12.833749899999999,1153
12.8362499,1218
12.8387499,1521
12.8412499,1832
12.8437499,1891
12.8462499,1633
12.8487499,1285
12.8512499,1139
12.8537499,1298
12.8562499,1640
12.8587499,1894
12.861249899999999,1840
12.8637499,1516
12.8662499,1203
12.8687499,1160
12.8712499,1398
12.8737499,1738
12.8762499,1904
12.878749899999999,1735
12.8812499,1380
12.8837499,1144
12.8862499,1211
12.8887499,1519
12.8912499,1832
12.8937499,1894
12.896249899999999,1638
12.8987499,1295
12.9012499,1155
12.9037499,1316
12.9062499,1651
12.9087499,1902
12.9112499,1844
12.9137499,1524
12.9162499,1219
12.9187499,1185
12.9212499,1432
12.923749899999999,1777
12.9262499,1948
12.9287499,1783
12.9312499,1432
12.9337499,1195
12.9362499,1263
12.9387499,1567
12.941249899999999,1875
12.9437499,1927
12.9462499,1662
12.9487499,1313
12.9512499,1171
12.9537499,1330
12.9562499,1664
12.958749899999999,1907
12.9612499,1844
12.9637499,1525
12.9662499,1229
12.9687499,1200
12.9712499,1448
12.9737499,1790
12.9762499,1954
12.9787499,1780
12.9812499,1422
12.9837499,1185
12.986249899999999,1253
12.9887499,1556
12.9912499,1861
12.9937499,1911
12.9962499,1645
12.9987499,1298
13.0012499,1163
13.003749899999999,1330
13.0062499,1674
13.0087499,1928
13.0112499,1867
13.0137499,1538
13.0162499,1223
13.0187499,1185
13.021249899999999,1432
13.0237499,1778
13.0262499,1941
13.0287499,1767
13.0312499,1416
13.0337499,1187
13.0362499,1261
13.0387499,1571
13.0412499,1873
13.0437499,1919
13.0462499,1656
13.048749899999999,1324
13.0512499,1210
13.0537499,1401
13.0562499,1756
13.0587499,2007
13.0612499,1935
13.0637499,1603
13.066249899999999,1301
13.0687499,1277
13.0712499,1532
13.0737499,1878
13.0762499,2036
13.0787499,1859
13.0812499,1501
13.083749899999999,1271
13.0862499,1372
13.0887499,1698
13.0912499,1994
13.0937499,2007
13.0962499,1743
13.0987499,1393
13.1012499,1253
13.1037499,1421
13.1062499,1754
13.1087499,1988
13.111249899999999,1906
13.1137499,1569
13.1162499,1263
13.1187499,1235
13.1212499,1485
13.1237499,1820
13.1262499,1967
13.128749899999999,1780
13.1312499,1421
13.1337499,1194
13.1362499,1285
13.1387499,1596
13.1412499,1909
13.1437499,1957
13.146249899999999,1688
13.1487499,1340
13.1512499,1210
13.1537499,1379
13.1562499,1712
13.1587499,1951
13.1612499,1873
13.1637499,1537
13.1662499,1232
13.1687499,1210
13.1712499,1461
13.173749899999999,1803
13.1762499,1964
13.1787499,1806
13.1812499,1513
13.1837499,1384
13.1862499,1592
13.1887499,2052
13.191249899999999,2528
13.1937499,2748
13.1962499,2642
13.1987499,2413
13.2012499,2294
13.2037499,2357
13.2062499,2502
13.208749899999999,2495
13.2112499,2157
13.2137499,1566
13.2162499,1037
13.2187499,874
13.2212499,1087
13.2237499,1461
13.2262499,1677
13.2287499,1563
13.2312499,1263
13.2337499,1076
13.236249899999999,1189
13.2387499,1527
13.2412499,1846
13.2437499,1894
13.2462499,1624
13.2487499,1282
13.2512499,1161
13.253749899999999,1342
13.2562499,1685
13.2587499,1922
13.2612499,1836
13.2637499,1504
13.2662499,1216
13.2687499,1211
13.271249899999999,1475
13.2737499,1814
13.2762499,1957
13.2787499,1766
13.2812499,1416
13.2837499,1208
13.2862499,1303
13.2887499,1619
13.2912499,1915
13.2937499,1938
13.2962499,1656
13.298749899999999,1322
13.3012499,1216
13.3037499,1409
13.3062499,1756
13.3087499,1990
13.3112499,1901
13.3137499,1567
13.316249899999999,1276
13.3187499,1268
13.3212499,1530
13.3237499,1867
13.3262499,2002
13.3287499,1804
13.3312499,1453
13.333749899999999,1245
13.3362499,1345
13.3387499,1669
13.3412499,1972
13.3437499,1998
13.3462499,1719
13.3487499,1387
13.3512499,1276
13.3537499,1464
13.3562499,1807
13.3587499,2035
13.361249899999999,1943
13.3637499,1608
13.3662499,1316
13.3687499,1311
13.3712499,1585
13.3737499,1935
13.3762499,2088
13.378749899999999,1899
13.3812499,1550
13.3837499,1343
13.3862499,1446
13.3887499,1769
13.3912499,2070
13.3937499,2096
13.396249899999999,1814
13.3987499,1484
13.4012499,1384
13.4037499,1585
13.4062499,1940
13.4087499,2170
13.4112499,2077
13.4137499,1740
13.4162499,1456
13.4187499,1459
13.4212499,1720
13.423749899999999,2052
13.4262499,2184
13.4287499,1991
13.4312499,1646
13.4337499,1446
13.4362499,1553
13.4387499,1867
13.441249899999999,2157
13.4437499,2175
13.4462499,1886
13.4487499,1545
13.4512499,1429
13.4537499,1617
13.4562499,1956
13.458749899999999,2167
13.4612499,2048
13.4637499,1688
13.4662499,1385
13.4687499,1372
13.4712499,1627
13.4737499,1948
13.4762499,2059
13.4787499,1835
13.4812499,1463
13.4837499,1245
13.486249899999999,1345
13.4887499,1659
13.4912499,1944
13.4937499,1943
13.4962499,1643
13.4987499,1300
13.5012499,1190
13.503749899999999,1379
13.5062499,1712
13.5087499,1920
13.5112499,1803
13.5137499,1459
13.5162499,1192
13.5187499,1216
13.521249899999999,1509
13.5237499,1853
13.5262499,1973
13.5287499,1756
13.5312499,1385
13.5337499,1179
13.5362499,1287
13.5387499,1612
13.5412499,1899
13.5437499,1901
13.5462499,1579
13.548749899999999,1260
13.5512499,1195
13.5537499,1398
13.5562499,1749
13.5587499,1972
13.5612499,1862
13.5637499,1516
13.566249899999999,1235
13.5687499,1245
13.5712499,1519
13.5737499,1849
13.5762499,1965
13.5787499,1746
13.5812499,1388
13.583749899999999,1187
13.5862499,1297
13.5887499,1633
13.5912499,1935
13.5937499,1943
13.5962499,1648
13.5987499,1313
13.6012499,1218
13.6037499,1421
13.6062499,1764
13.6087499,1975
13.611249899999999,1861
13.6137499,1516
13.6162499,1237
13.6187499,1256
13.6212499,1538
13.6237499,1872
13.6262499,1985
13.628749899999999,1761
13.6312499,1401
13.6337499,1211
13.6362499,1330
13.6387499,1656
13.6412499,1940
13.6437499,1932
13.646249899999999,1629
13.6487499,1298
13.6512499,1221
13.6537499,1440
13.6562499,1793
13.6587499,2002
13.6612499,1875
13.6637499,1519
13.6662499,1237
13.6687499,1253
13.6712499,1532
13.673749899999999,1865
13.6762499,1990
13.6787499,1777
13.6812499,1429
13.6837499,1242
13.6862499,1363
13.6887499,1683
13.691249899999999,1961
13.6937499,1946
13.6962499,1641
13.6987499,1311
13.7012499,1224
13.7037499,1437
13.7062499,1786
13.708749899999999,1998
13.7112499,1873
13.7137499,1525
13.7162499,1250
13.7187499,1269
13.7212499,1554
13.7237499,1888
13.7262499,1991
13.7287499,1761
13.7312499,1400
13.7337499,1216
13.736249899999999,1345
13.7387499,1682
13.7412499,1970
13.7437499,1965
13.7462499,1662
13.7487499,1332
13.7512499,1250
13.753749899999999,1459
13.7562499,1809
13.7587499,2017
13.7612499,1891
13.7637499,1540
13.7662499,1264
13.7687499,1285
13.771249899999999,1566
13.7737499,1890
13.7762499,1988
13.7787499,1759
13.7812499,1414
13.7837499,1243
13.7862499,1377
13.7887499,1711
13.7912499,1991
13.7937499,1973
13.7962499,1664
13.798749899999999,1337
13.8012499,1261
13.8037499,1480
13.8062499,1822
13.8087499,2015
13.8112499,1882
13.8137499,1537
13.816249899999999,1269
13.8187499,1305
13.8212499,1600
13.8237499,1930
13.8262499,2030
13.8287499,1799
13.8312499,1451
13.833749899999999,1276
13.8362499,1401
13.8387499,1720
13.8412499,1988
13.8437499,1965
13.8462499,1659
13.8487499,1340
13.8512499,1276
13.8537499,1501
13.8562499,1853
13.8587499,2051
13.861249899999999,1915
13.8637499,1567
13.8662499,1303
13.8687499,1343
13.8712499,1635
13.8737499,1965
13.8762499,2064
13.878749899999999,1836
13.8812499,1490
13.8837499,1319
13.8862499,1458
13.8887499,1791
13.8912499,2070
13.8937499,2049
13.896249899999999,1741
13.8987499,1427
13.9012499,1369
13.9037499,1592
13.9062499,1928
13.9087499,2110
13.9112499,1956
13.9137499,1596
13.9162499,1327
13.9187499,1358
13.9212499,1641
13.923749899999999,1956
13.9262499,2031
13.9287499,1783
13.9312499,1427
13.9337499,1253
13.9362499,1388
13.9387499,1719
13.941249899999999,1988
13.9437499,1961
13.9462499,1648
13.9487499,1326
13.9512499,1260
13.9537499,1482
13.9562499,1830
13.958749899999999,2031
13.9612499,1896
13.9637499,1545
13.9662499,1281
13.9687499,1324
13.9712499,1617
13.9737499,1938
13.9762499,2012
13.9787499,1749
13.9812499,1382
13.9837499,1219
13.986249899999999,1374
13.9887499,1740
13.9912499,2065
13.9937499,2120
13.9962499,1930
13.9987499,1769
14.0012499,1886
14.003749899999999,2292
14.0062499,2800
14.0087499,3100
14.0112499,2953
14.0137499,2491
14.0162499,2056
14.0187499,1882
14.021249899999999,1925
14.0237499,1993
14.0262499,1843
14.0287499,1446
14.0312499,1036
14.0337499,887
14.0362499,1089
14.0387499,1501
14.0412499,1836
14.0437499,1846
14.0462499,1556
14.048749899999999,1248
14.0512499,1202
14.0537499,1443
14.0562499,1795
14.0587499,1986
14.0612499,1844
14.0637499,1503
14.066249899999999,1258
14.0687499,1305
14.0712499,1600
14.0737499,1917
14.0762499,1993
14.0787499,1741
14.0812499,1387
14.083749899999999,1229
14.0862499,1384
14.0887499,1725
14.0912499,1994
14.0937499,1957
14.0962499,1646
14.0987499,1340
14.1012499,1297
14.1037499,1535
14.1062499,1885
14.1087499,2067
14.111249899999999,1917
14.1137499,1575
14.1162499,1337
14.1187499,1401
14.1212499,1708
14.1237499,2033
14.1262499,2106
14.128749899999999,1849
14.1312499,1495
14.1337499,1340
14.1362499,1498
14.1387499,1843
14.1412499,2107
14.1437499,2059
14.146249899999999,1737
14.1487499,1422
14.1512499,1374
14.1537499,1612
14.1562499,1967
14.1587499,2152
14.1612499,2002
14.1637499,1654
14.1662499,1406
14.1687499,1463
14.1712499,1762
14.173749899999999,2081
14.1762499,2152
14.1787499,1901
14.1812499,1554
14.1837499,1409
14.1862499,1572
14.1887499,1917
14.191249899999999,2180
14.1937499,2135
14.1962499,1819
14.1987499,1516
14.2012499,1482
14.2037499,1724
14.2062499,2068
14.208749899999999,2238
14.2112499,2078
14.2137499,1732
14.2162499,1501
14.2187499,1567
14.2212499,1873
14.2237499,2199
14.2262499,2271
14.2287499,2025
14.2312499,1683
14.2337499,1542
14.236249899999999,1703
14.2387499,2046
14.2412499,2304
14.2437499,2241
14.2462499,1909
14.2487499,1592
14.2512499,1546
14.253749899999999,1790
14.2562499,2139
14.2587499,2305
14.2612499,2128
14.2637499,1759
14.2662499,1506
14.2687499,1558
14.271249899999999,1844
14.2737499,2146
14.2762499,2194
14.2787499,1922
14.2812499,1558
14.2837499,1388
14.2862499,1524
14.2887499,1840
14.2912499,2078
14.2937499,2009
14.2962499,1674
14.298749899999999,1358
14.3012499,1314
14.3037499,1556
14.3062499,1891
14.3087499,2043
14.3112499,1864
14.3137499,1503
14.316249899999999,1264
14.3187499,1332
14.3212499,1638
14.3237499,1943
14.3262499,1994
14.3287499,1728
14.3312499,1380
14.333749899999999,1237
14.3362499,1398
14.3387499,1740
14.3412499,1996
14.3437499,1936
14.3462499,1612
14.3487499,1308
14.3512499,1276
14.3537499,1524
14.3562499,1864
14.3587499,2019
14.361249899999999,1840
14.3637499,1490
14.3662499,1263
14.3687499,1337
14.3712499,1648
14.3737499,1952
14.3762499,1998
14.378749899999999,1728
14.3812499,1385
14.3837499,1255
14.3862499,1426
14.3887499,1770
14.3912499,2025
14.3937499,1961
14.396249899999999,1633
14.3987499,1337
14.4012499,1310
14.4037499,1554
14.4062499,1883
14.4087499,2030
14.4112499,1849
14.4137499,1501
14.4162499,1285
14.4187499,1369
14.4212499,1680
14.423749899999999,1981
14.4262499,2012
14.4287499,1732
14.4312499,1384
14.4337499,1256
14.4362499,1437
14.4387499,1785
14.441249899999999,2028
14.4437499,1954
14.4462499,1621
14.4487499,1316
14.4512499,1290
14.4537499,1540
14.4562499,1878
14.458749899999999,2028
14.4612499,1843
14.4637499,1488
14.4662499,1260
14.4687499,1327
14.4712499,1627
14.4737499,1932
14.4762499,1991
14.4787499,1712
14.4812499,1387
14.4837499,1285
14.486249899999999,1456
14.4887499,1793
14.4912499,2030
14.4937499,1949
14.4962499,1614
14.4987499,1314
14.5012499,1297
14.503749899999999,1556
14.5062499,1899
14.5087499,2046
14.5112499,1859
14.5137499,1504
14.5162499,1284
14.5187499,1372
14.521249899999999,1685
14.5237499,1990
14.5262499,2027
14.5287499,1751
14.5312499,1408
14.5337499,1282
14.5362499,1463
14.5387499,1809
14.5412499,2048
14.5437499,1959
14.5462499,1624
14.548749899999999,1326
14.5512499,1311
14.5537499,1567
14.5562499,1899
14.5587499,2041
14.5612499,1848
14.5637499,1496
14.566249899999999,1285
14.5687499,1377
14.5712499,1693
14.5737499,1999
14.5762499,2030
14.5787499,1746
14.5812499,1398
14.583749899999999,1281
14.5862499,1475
14.5887499,1830
14.5912499,2067
14.5937499,1980
14.5962499,1641
14.5987499,1345
14.6012499,1332
14.6037499,1596
14.6062499,1936
14.6087499,2077
14.611249899999999,1882
14.6137499,1525
14.6162499,1313
14.6187499,1411
14.6212499,1733
14.6237499,2038
14.6262499,2070
14.628749899999999,1791
14.6312499,1453
14.6337499,1340
14.6362499,1530
14.6387499,1878
14.6412499,2115
14.6437499,2028
14.646249899999999,1688
14.6487499,1397
14.6512499,1393
14.6537499,1666
14.6562499,2015
14.6587499,2160
14.6612499,1967
14.6637499,1612
14.6662499,1401
14.6687499,1501
14.6712499,1817
14.673749899999999,2112
14.6762499,2125
14.6787499,1828
14.6812499,1477
14.6837499,1351
14.6862499,1532
14.6887499,1869
14.691249899999999,2088
14.6937499,1990
14.6962499,1646
14.6987499,1355
14.7012499,1348
14.7037499,1614
14.7062499,1948
14.708749899999999,2072
14.7112499,1862
14.7137499,1503
14.7162499,1295
14.7187499,1398
14.7212499,1719
14.7237499,2015
14.7262499,2031
14.7287499,1740
14.7312499,1397
14.7337499,1285
14.736249899999999,1472
14.7387499,1809
14.7412499,2031
14.7437499,1928
14.7462499,1587
14.7487499,1293
14.7512499,1301
14.753749899999999,1579
14.7562499,1940
14.7587499,2123
14.7612499,2009
14.7637499,1782
14.7662499,1741
14.7687499,2031
14.771249899999999,2541
14.7737499,2995
14.7762499,3121
14.7787499,2847
14.7812499,2399
14.7837499,2088
14.7862499,2033
14.7887499,2118
14.7912499,2081
14.7937499,1746
14.7962499,1258
14.798749899999999,921
14.8012499,949
14.8037499,1285
14.8062499,1703
14.8087499,1896
14.8112499,1727
14.8137499,1398
14.816249899999999,1218
14.8187499,1342
14.8212499,1675
14.8237499,1973
14.8262499,1983
14.8287499,1687
14.8312499,1343
14.833749899999999,1234
14.8362499,1442
14.8387499,1812
14.8412499,2052
14.8437499,1952
14.8462499,1612
14.8487499,1330
14.8512499,1337
14.8537499,1609
14.8562499,1944
14.8587499,2067
14.861249899999999,1861
14.8637499,1506
14.8662499,1308
14.8687499,1419
14.8712499,1741
14.8737499,2028
14.8762499,2027
14.878749899999999,1730
14.8812499,1408
14.8837499,1326
14.8862499,1540
14.8887499,1885
14.8912499,2094
14.8937499,1978
14.896249899999999,1630
14.8987499,1350
14.9012499,1366
14.9037499,1646
14.9062499,1983
14.9087499,2102
14.9112499,1882
14.9137499,1519
14.9162499,1321
14.9187499,1446
14.9212499,1788
14.923749899999999,2088
14.9262499,2088
14.9287499,1786
14.9312499,1455
14.9337499,1371
14.9362499,1592
14.9387499,1977
14.941249899999999,2167
14.9437499,2020
14.9462499,1662
14.9487499,1411
14.9512499,1435
14.9537499,1728
14.9562499,2072
14.958749899999999,2184
14.9612499,1964
14.9637499,1612
14.9662499,1427
14.9687499,1558
14.9712499,1894
14.9737499,2184
14.9762499,2184
14.9787499,1888
14.9812499,1566
14.9837499,1488
14.986249899999999,1703
14.9887499,2057
14.9912499,2271
14.9937499,2139
14.9962499,1811
14.9987499,1550
15.0012499,1583
15.003749899999999,1875
15.0062499,2207
15.0087499,2310
15.0112499,2080
15.0137499,1722
15.0162499,1533
15.0187499,1645
15.021249899999999,1967
15.0237499,2246
15.0262499,2238
15.0287499,1932
15.0312499,1593
15.0337499,1498
15.0362499,1696
15.0387499,2035
15.0412499,2225
15.0437499,2080
15.0462499,1711
15.048749899999999,1422
15.0512499,1434
15.0537499,1703
15.0562499,2017
15.0587499,2096
15.0612499,1848
15.0637499,1477
15.066249899999999,1284
15.0687499,1401
15.0712499,1725
15.0737499,1996
15.0762499,1973
15.0787499,1662
15.0812499,1337
15.083749899999999,1260
15.0862499,1477
15.0887499,1820
15.0912499,2014
15.0937499,1869
15.0962499,1511
15.0987499,1250
15.1012499,1301
15.1037499,1604
15.1062499,1935
15.1087499,2025
15.111249899999999,1780
15.1137499,1419
15.1162499,1239
15.1187499,1372
15.1212499,1706
15.1237499,1983
15.1262499,1959
15.128749899999999,1650
15.1312499,1330
15.1337499,1263
15.1362499,1484
15.1387499,1827
15.1412499,2022
15.1437499,1882
15.146249899999999,1527
15.1487499,1266
15.1512499,1306
15.1537499,1603
15.1562499,1930
15.1587499,2019
15.1612499,1777
15.1637499,1421
15.1662499,1247
15.1687499,1385
15.1712499,1719
15.173749899999999,1990
15.1762499,1962
15.1787499,1653
15.1812499,1332
15.1837499,1263
15.1862499,1485
15.1887499,1822
15.191249899999999,2009
15.1937499,1861
15.1962499,1516
15.1987499,1272
15.2012499,1324
15.2037499,1622
15.2062499,1946
15.208749899999999,2030
15.2112499,1786
15.2137499,1426
15.2162499,1250
15.2187499,1387
15.2212499,1719
15.2237499,1991
15.2262499,1964
15.2287499,1648
15.2312499,1322
15.2337499,1256
15.236249899999999,1484
15.2387499,1828
15.2412499,2015
15.2437499,1872
15.2462499,1522
15.2487499,1268
15.2512499,1314
15.253749899999999,1612
15.2562499,1936
15.2587499,2019
15.2612499,1769
15.2637499,1416
15.2662499,1255
15.2687499,1403
15.271249899999999,1738
15.2737499,2004
15.2762499,1967
15.2787499,1653
15.2812499,1337
15.2837499,1281
15.2862499,1511
15.2887499,1854
15.2912499,2033
15.2937499,1877
15.2962499,1519
15.298749899999999,1268
15.3012499,1319
15.3037499,1621
15.3062499,1944
15.3087499,2025
15.3112499,1775
15.3137499,1422
15.316249899999999,1258
15.3187499,1405
15.3212499,1738
15.3237499,2002
15.3262499,1957
15.3287499,1638
15.3312499,1313
15.333749899999999,1253
15.3362499,1487
15.3387499,1833
15.3412499,2017
15.3437499,1859
15.3462499,1501
15.3487499,1253
15.3512499,1318
15.3537499,1627
15.3562499,1951
15.3587499,2027
15.361249899999999,1775
15.3637499,1422
15.3662499,1264
15.3687499,1417
15.3712499,1761
15.3737499,2028
15.3762499,1988
15.378749899999999,1672
15.3812499,1366
15.3837499,1326
15.3862499,1569
15.3887499,1917
15.3912499,2088
15.3937499,1923
15.396249899999999,1569
15.3987499,1335
15.4012499,1414
15.4037499,1735
15.4062499,2086
15.4087499,2135
15.4112499,1857
15.4137499,1511
15.4162499,1379
15.4187499,1532
15.4212499,1862
15.4237499,2114
15.4262499,2049
15.4287499,1706
15.4312499,1377
15.4337499,1324
15.4362499,1561
15.4387499,1902
15.441249899999999,2067
15.4437499,1890
15.4462499,1516
15.4487499,1260
15.4512499,1322
15.4537499,1632
15.4562499,1954
15.458749899999999,2022
15.4612499,1764
15.4637499,1416
15.4662499,1264
15.4687499,1419
15.4712499,1751
15.4737499,2001
15.4762499,1940
15.4787499,1611
15.4812499,1295
15.4837499,1258
15.4862499,1504
15.4887499,1848
15.4912499,2010
15.4937499,1835
15.4962499,1480
15.4987499,1253
15.5012499,1355
15.503749899999999,1727
15.5062499,2147
15.5087499,2344
15.5112499,2255
15.5137499,2096
15.5162499,2130
15.5187499,2446
15.521249899999999,2882
15.5237499,3127
15.5262499,2951
15.5287499,2423
15.5312499,1859
15.5337499,1558
15.5362499,1545
15.5387499,1677
15.5412499,1719
15.5437499,1516
15.5462499,1197
15.5487499,1028
15.5512499,1176
15.5537499,1554
15.5562499,1917
15.5587499,2002
15.5612499,1753
15.5637499,1411
15.566249899999999,1276
15.5687499,1451
15.5712499,1799
15.5737499,2056
15.5762499,1996
15.5787499,1662
15.5812499,1350
15.583749899999999,1313
15.5862499,1567
15.5887499,1915
15.5912499,2078
15.5937499,1906
15.5962499,1554
15.5987499,1324
15.6012499,1403
15.6037499,1714
15.6062499,2027
15.6087499,2072
15.6112499,1793
15.6137499,1437
15.6162499,1298
15.6187499,1472
15.6212499,1822
15.6237499,2083
15.6262499,2027
15.628749899999999,1703
15.6312499,1401
15.6337499,1371
15.6362499,1621
15.6387499,1961
15.6412499,2117
15.6437499,1936
15.646249899999999,1579
15.6487499,1343
15.6512499,1424
15.6537499,1738
15.6562499,2049
15.6587499,2097
15.6612499,1827
15.6637499,1487
15.6662499,1363
15.6687499,1542
15.6712499,1885
15.6737499,2130
15.6762499,2057
15.6787499,1724
15.6812499,1422
15.6837499,1398
15.6862499,1658
15.6887499,2010
15.691249899999999,2178
15.6937499,2002
15.6962499,1648
15.6987499,1427
15.7012499,1519
15.7037499,1833
15.7062499,2146
15.708749899999999,2188
15.7112499,1920
15.7137499,1588
15.7162499,1469
15.7187499,1653
15.7212499,2009
15.7237499,2257
15.7262499,2183
15.7287499,1853
15.7312499,1561
15.7337499,1545
15.7362499,1804
15.7387499,2157
15.7412499,2310
15.7437499,2122
15.7462499,1761
15.7487499,1540
15.7512499,1630
15.753749899999999,1951
15.7562499,2259
15.7587499,2299
15.7612499,2022
15.7637499,1669
15.7662499,1538
15.7687499,1704
15.771249899999999,2044
15.7737499,2276
15.7762499,2184
15.7787499,1832
15.7812499,1516
15.7837499,1488
15.7862499,1733
15.7887499,2060
15.7912499,2184
15.7937499,1972
15.7962499,1592
15.7987499,1350
15.8012499,1421
15.8037499,1725
15.8062499,2023
15.8087499,2041
15.8112499,1746
15.8137499,1390
15.816249899999999,1260
15.8187499,1437
15.8212499,1772
15.8237499,2004
15.8262499,1915
15.8287499,1585
15.8312499,1293
15.833749899999999,1277
15.8362499,1530
15.8387499,1864
15.8412499,1996
15.8437499,1796
15.8462499,1434
15.8487499,1214
15.8512499,1306
15.8537499,1627
15.8562499,1938
15.8587499,1977
15.8612499,1698
15.8637499,1359
15.8662499,1245
15.8687499,1432
15.8712499,1775
15.8737499,2002
15.8762499,1888
15.878749899999999,1543
15.8812499,1264
15.8837499,1282
15.8862499,1537
15.8887499,1882
15.8912499,2023
15.8937499,1828
15.896249899999999,1472
15.8987499,1255
15.9012499,1353
15.9037499,1672
15.9062499,1973
15.9087499,1994
15.9112499,1706
15.9137499,1368
15.9162499,1263
15.9187499,1459
15.9212499,1807
15.9237499,2038
15.9262499,1943
15.9287499,1598
15.9312499,1298
15.9337499,1285
15.9362499,1548
15.9387499,1883
15.941249899999999,2012
15.9437499,1804
15.9462499,1443
15.9487499,1237
15.9512499,1343
15.9537499,1669
15.9562499,1967
15.958749899999999,1986
15.9612499,1701
15.9637499,1363
15.9662499,1252
15.9687499,1443
15.9712499,1786
15.9737499,2007
15.9762499,1901
15.9787499,1553
15.9812499,1264
15.9837499,1274
15.9862499,1550
15.9887499,1888
15.9912499,2014
15.9937499,1799
15.9962499,1437
15.9987499,1234
16.0012499,1342
16.003749900000003,1664
16.0062499,1961
16.0087499,1975
16.011249900000003,1680
16.0137499,1340
16.016249900000002,1235
16.018749900000003,1427
16.0212499,1774
16.023749900000002,1998
16.0262499,1894
16.0287499,1550
16.031249900000002,1260
16.0337499,1256
16.0362499,1532
16.038749900000003,1872
16.0412499,2002
16.0437499,1796
16.046249900000003,1437
16.0487499,1242
16.051249900000002,1358
16.053749900000003,1683
16.0562499,1977
16.058749900000002,1980
16.0612499,1682
16.0637499,1342
16.066249900000003,1245
16.0687499,1450
16.0712499,1801
16.073749900000003,2027
16.0762499,1920
16.078749900000002,1577
16.081249900000003,1290
16.0837499,1297
16.086249900000002,1571
16.0887499,1914
16.0912499,2046
16.093749900000002,1843
16.0962499,1495
16.0987499,1305
16.101249900000003,1417
16.1037499,1740
16.1062499,2027
16.108749900000003,2028
16.1112499,1730
16.113749900000002,1395
16.116249900000003,1301
16.1187499,1509
16.121249900000002,1862
16.1237499,2081
16.1262499,1972
16.128749900000003,1629
16.1312499,1353
16.1337499,1369
16.136249900000003,1641
16.1387499,1962
16.141249900000002,2060
16.143749900000003,1820
16.1462499,1442
16.148749900000002,1227
16.1512499,1337
16.1537499,1672
16.156249900000002,1972
16.1587499,1977
16.1612499,1672
16.163749900000003,1327
16.1662499,1229
16.1687499,1434
16.171249900000003,1782
16.1737499,1999
16.176249900000002,1885
16.178749900000003,1543
16.1812499,1263
16.183749900000002,1276
16.1862499,1553
16.1887499,1885
16.191249900000003,1994
16.1937499,1769
16.1962499,1411
16.198749900000003,1219
16.2012499,1339
16.203749900000002,1667
16.206249900000003,1952
16.2087499,1941
16.211249900000002,1640
16.2137499,1329
16.2162499,1300
16.218749900000002,1612
16.2212499,2093
16.2237499,2460
16.226249900000003,2516
16.2287499,2354
16.2312499,2244
16.233749900000003,2381
16.2362499,2679
16.238749900000002,2913
16.241249900000003,2834
16.2437499,2370
16.246249900000002,1745
16.2487499,1287
16.2512499,1169
16.253749900000003,1345
16.2562499,1566
16.2587499,1571
16.261249900000003,1321
16.2637499,1065
16.266249900000002,1057
16.268749900000003,1332
16.2712499,1727
16.273749900000002,1961
16.2762499,1848
16.2787499,1500
16.281249900000002,1218
16.2837499,1227
16.2862499,1514
16.288749900000003,1861
16.2912499,1988
16.2937499,1772
16.296249900000003,1421
16.2987499,1242
16.301249900000002,1372
16.303749900000003,1708
16.3062499,1999
16.308749900000002,1996
16.3112499,1695
16.3137499,1366
16.316249900000003,1290
16.3187499,1517
16.3212499,1878
16.323749900000003,2091
16.3262499,1969
16.328749900000002,1622
16.331249900000003,1347
16.3337499,1366
16.336249900000002,1650
16.3387499,1978
16.3412499,2078
16.343749900000002,1862
16.3462499,1527
16.3487499,1364
16.351249900000003,1522
16.3537499,1857
16.3562499,2112
16.358749900000003,2077
16.3612499,1770
16.363749900000002,1450
16.366249900000003,1379
16.3687499,1603
16.371249900000002,1956
16.3737499,2157
16.3762499,2023
16.378749900000003,1674
16.3812499,1411
16.3837499,1448
16.386249900000003,1738
16.3887499,2068
16.391249900000002,2159
16.393749900000003,1919
16.3962499,1563
16.398749900000002,1388
16.4012499,1538
16.4037499,1890
16.406249900000002,2184
16.4087499,2173
16.4112499,1867
16.413749900000003,1543
16.4162499,1471
16.4187499,1688
16.421249900000003,2036
16.4237499,2233
16.426249900000002,2106
16.428749900000003,1766
16.4312499,1517
16.433749900000002,1561
16.4362499,1856
16.4387499,2189
16.441249900000003,2286
16.4437499,2052
16.4462499,1703
16.448749900000003,1545
16.4512499,1691
16.453749900000002,2035
16.456249900000003,2313
16.4587499,2289
16.461249900000002,1972
16.4637499,1645
16.4662499,1577
16.468749900000002,1803
16.4712499,2154
16.4737499,2342
16.476249900000003,2193
16.4787499,1827
16.4812499,1550
16.483749900000003,1579
16.4862499,1873
16.488749900000002,2205
16.491249900000003,2286
16.4937499,2030
16.496249900000002,1650
16.4987499,1455
16.5012499,1566
16.503749900000003,1877
16.5062499,2128
16.5087499,2078
16.511249900000003,1746
16.5137499,1405
16.516249900000002,1321
16.518749900000003,1533
16.5212499,1875
16.523749900000002,2062
16.5262499,1909
16.5287499,1548
16.531249900000002,1282
16.5337499,1319
16.5362499,1609
16.538749900000003,1925
16.5412499,2002
16.5437499,1753
16.546249900000003,1395
16.5487499,1227
16.551249900000002,1361
16.553749900000003,1688
16.5562499,1956
16.558749900000002,1927
16.5612499,1617
16.5637499,1305
16.566249900000003,1243
16.5687499,1467
16.5712499,1809
16.573749900000003,1990
16.5762499,1830
16.578749900000002,1474
16.581249900000003,1224
16.5837499,1282
16.586249900000002,1587
16.5887499,1912
16.5912499,1988
16.593749900000002,1732
16.5962499,1372
16.5987499,1210
16.601249900000003,1366
16.6037499,1712
16.6062499,1981
16.608749900000003,1940
16.6112499,1617
16.613749900000002,1293
16.616249900000003,1243
16.6187499,1480
16.621249900000002,1827
16.6237499,2007
16.6262499,1849
16.628749900000003,1493
16.6312499,1240
16.6337499,1292
16.636249900000003,1595
16.6387499,1917
16.641249900000002,1991
16.643749900000003,1741
16.6462499,1392
16.648749900000002,1235
16.6512499,1385
16.6537499,1725
16.656249900000002,1988
16.6587499,1938
16.6612499,1614
16.663749900000003,1292
16.6662499,1235
16.6687499,1469
16.671249900000003,1815
16.6737499,1998
16.676249900000002,1843
16.678749900000003,1490
16.6812499,1239
16.683749900000002,1292
16.6862499,1593
16.6887499,1906
16.691249900000003,1973
16.6937499,1717
16.6962499,1366
16.698749900000003,1213
16.7012499,1363
16.703749900000002,1698
16.706249900000003,1959
16.7087499,1906
16.711249900000002,1580
16.7137499,1266
16.7162499,1221
16.718749900000002,1461
16.7212499,1803
16.7237499,1975
16.726249900000003,1814
16.7287499,1466
16.7312499,1224
16.733749900000003,1289
16.7362499,1595
16.738749900000002,1909
16.741249900000003,1970
16.7437499,1706
16.746249900000002,1350
16.7487499,1203
16.7512499,1366
16.753749900000003,1711
16.7562499,1969
16.7587499,1917
16.761249900000003,1592
16.7637499,1282
16.766249900000002,1240
16.768749900000003,1484
16.7712499,1827
16.773749900000002,1999
16.7762499,1830
16.7787499,1475
16.781249900000002,1234
16.7837499,1310
16.7862499,1630
16.788749900000003,1954
16.7912499,2019
16.7937499,1756
16.796249900000003,1405
16.7987499,1256
16.801249900000002,1419
16.803749900000003,1761
16.8062499,2014
16.808749900000002,1952
16.8112499,1622
16.8137499,1313
16.816249900000003,1290
16.8187499,1558
16.8212499,1943
16.823749900000003,2091
16.8262499,1891
16.828749900000002,1553
16.831249900000003,1300
16.8337499,1353
16.836249900000002,1643
16.8387499,1938
16.8412499,1973
16.843749900000002,1699
16.8462499,1351
16.8487499,1213
16.851249900000003,1380
16.8537499,1722
16.8562499,1969
16.858749900000003,1898
16.8612499,1564
16.863749900000002,1255
16.866249900000003,1224
16.8687499,1477
16.871249900000002,1827
16.8737499,1990
16.8762499,1806
16.878749900000003,1438
16.8812499,1200
16.8837499,1272
16.886249900000003,1592
16.8887499,1904
16.891249900000002,1948
16.893749900000003,1672
16.8962499,1319
16.898749900000002,1179
16.9012499,1342
16.9037499,1682
16.906249900000002,1940
16.9087499,1894
16.9112499,1608
16.913749900000003,1374
16.9162499,1451
16.9187499,1844
16.921249900000003,2371
16.9237499,2726
16.926249900000002,2731
16.928749900000003,2516
16.9312499,2342
16.933749900000002,2357
16.9362499,2499
16.9387499,2576
16.941249900000003,2365
16.9437499,1830
16.9462499,1223
16.948749900000003,897
16.9512499,974
16.953749900000002,1313
16.956249900000003,1609
16.9587499,1608
16.961249900000002,1345
16.9637499,1102
16.9662499,1119
16.968749900000002,1398
16.9712499,1757
16.9737499,1917
16.976249900000003,1732
16.9787499,1368
16.9812499,1144
16.983749900000003,1235
16.9862499,1572
16.988749900000002,1901
16.991249900000003,1952
16.9937499,1680
16.996249900000002,1330
16.9987499,1200
17.0012499,1371
17.003749900000003,1712
17.0062499,1957
17.0087499,1883
17.011249900000003,1556
17.0137499,1263
17.016249900000002,1255
17.018749900000003,1517
17.0212499,1862
17.023749900000002,2010
17.0262499,1820
17.0287499,1463
17.031249900000002,1239
17.0337499,1326
17.0362499,1641
17.038749900000003,1948
17.0412499,1983
17.0437499,1703
17.046249900000003,1359
17.0487499,1242
17.051249900000002,1438
17.053749900000003,1801
17.0562499,2051
17.058749900000002,1967
17.0612499,1624
17.0637499,1321
17.066249900000003,1305
17.0687499,1571
17.0712499,1914
17.073749900000003,2059
17.0762499,1864
17.078749900000002,1508
17.081249900000003,1295
17.0837499,1393
17.086249900000002,1716
17.088749900000003,2027
17.0912499,2059
17.093749900000002,1778
17.0962499,1438
17.0987499,1326
17.101249900000003,1517
17.1037499,1869
17.1062499,2104
17.108749900000003,2019
17.1112499,1683
17.113749900000002,1393
17.116249900000003,1393
17.1187499,1669
17.121249900000002,2022
17.1237499,2165
17.1262499,1969
17.128749900000003,1612
17.1312499,1401
17.1337499,1509
17.136249900000003,1848
17.1387499,2167
17.141249900000002,2202
17.143749900000003,1923
17.1462499,1585
17.148749900000002,1471
17.151249900000003,1659
17.1537499,2009
17.156249900000002,2244
17.1587499,2157
17.1612499,1819
17.163749900000003,1529
17.1662499,1529
17.1687499,1801
17.171249900000003,2144
17.1737499,2280
17.176249900000002,2070
17.178749900000003,1698
17.1812499,1479
17.183749900000002,1567
17.1862499,1878
17.1887499,2162
17.191249900000003,2168
17.1937499,1862
17.1962499,1496
