# Time (seconds),Voltage
0.0012499,214
0.0037499,973
0.0062499,2193
0.0087499,2943
0.0112499,2650
0.0137499,1530
0.016249899999999998,406
0.0187499,338
0.021249900000000002,1382
0.023749899999999997,2539
0.0262499,2958
0.028749900000000002,2339
0.031249899999999997,1106
0.0337499,265
0.0362499,766
0.0387499,1806
0.0412499,2790
0.0437499,2850
0.0462499,1952
0.0487499,717
0.0512499,244
0.053749899999999996,1011
0.0562499,2201
0.0587499,2918
0.061249899999999996,2632
0.0637499,1546
0.0662499,443
0.0687499,383
0.0712499,1414
0.0737499,2520
0.0762499,2911
0.0787499,2317
0.0812499,1108
0.0837499,281
0.0862499,665
0.0887499,1811
0.0912499,2740
0.0937499,2792
0.0962499,1944
0.0987499,736
0.1012499,275
0.1037499,1044
0.1062499,2183
0.1087499,2853
0.1112499,2589
0.1137499,1550
0.1162499,465
0.1187499,415
0.1212499,1451
0.1237499,2499
0.1262499,2855
0.1287499,2294
0.1312499,1135
0.1337499,362
0.1362499,763
0.1387499,1867
0.1412499,2713
0.1437499,2740
0.1462499,1936
0.1487499,752
0.1512499,304
0.1537499,1087
0.1562499,2183
0.1587499,2797
0.1612499,2545
0.1637499,1553
0.1662499,496
0.1687499,472
0.1712499,1501
0.1737499,2426
0.17624990000000001,2668
0.1787499,2194
0.1812499,1185
0.1837499,472
0.1862499,895
0.1887499,1899
0.1912499,2507
0.1937499,2483
0.1962499,1885
0.1987499,873
0.2012499,502
0.2037499,1287
0.2062499,2209
0.20874990000000002,2621
0.2112499,2384
0.2137499,1553
0.2162499,612
0.2187499,620
0.2212499,1609
0.2237499,2431
0.2262499,2636
0.2287499,2183
0.2312499,1173
0.2337499,457
0.2362499,891
0.23874990000000001,1930
0.2412499,2608
0.2437499,2592
0.2462499,1835
0.2487499,775
0.2512499,472
0.25374990000000003,1326
0.25624990000000003,2212
0.25874990000000003,2674
0.26124990000000003,2420
0.26374990000000004,1540
0.26624990000000004,575
0.26874990000000004,578
0.27124990000000004,1574
0.27374990000000005,2465
0.27624990000000005,2723
0.27874990000000005,2210
0.28124990000000005,1135
0.28374990000000005,399
0.28624990000000006,829
0.28874990000000006,1901
0.2912499,2653
0.2937499,2634
0.2962499,1878
0.2987499,770
0.3012499,381
0.3037499,1182
0.3062499,2231
0.3087499,2766
0.3112499,2483
0.3137499,1513
0.31624990000000003,501
0.31874990000000003,499
0.32124990000000003,1529
0.32374990000000003,2521
0.32624990000000004,2844
0.32874990000000004,2284
0.33124990000000004,1123
0.33374990000000004,330
0.33624990000000005,737
0.33874990000000005,1859
0.34124990000000005,2740
0.34374990000000005,2774
0.34624990000000005,1938
0.34874990000000006,741
0.35124990000000006,306
0.3537499,1098
0.3562499,2231
0.3587499,2877
0.3612499,2589
0.3637499,1535
0.3662499,465
0.3687499,444
0.3712499,1490
0.3737499,2552
0.3762499,2897
0.37874990000000003,2302
0.38124990000000003,1105
0.38374990000000003,304
0.38624990000000003,723
0.38874990000000004,1865
0.39124990000000004,2771
0.39374990000000004,2798
0.39624990000000004,1935
0.39874990000000005,728
0.40124990000000005,296
0.40374990000000005,1048
0.40624990000000005,2189
0.40874990000000005,2856
0.41124990000000006,2578
0.41374990000000006,1521
0.41624990000000006,447
0.4187499,435
0.4212499,1479
0.4237499,2533
0.4262499,2881
0.4287499,2275
0.4312499,1074
0.4337499,281
0.4362499,707
0.4387499,1861
0.44124990000000003,2777
0.44374990000000003,2798
0.44624990000000003,1914
0.44874990000000003,697
0.45124990000000004,264
0.45374990000000004,1065
0.45624990000000004,2233
0.45874990000000004,2906
0.46124990000000005,2599
0.46374990000000005,1503
0.46624990000000005,420
0.46874990000000005,406
0.47124990000000005,1464
0.47374990000000006,2566
0.47624990000000006,2926
0.47874990000000006,2294
0.4812499,1071
0.4837499,277
0.4862499,700
0.4887499,1864
0.4912499,2806
0.4937499,2827
0.4962499,1914
0.4987499,691
0.5012499,261
0.5037499000000001,1061
0.5062499,2252
0.5087499000000001,2939
0.5112499,2607
0.5137499,1490
0.5162499,414
0.5187499,404
0.5212499,1463
0.5237499,2586
0.5262499,2951
0.5287499,2292
0.5312499,1053
0.5337499,256
0.5362499000000001,681
0.5387499,1851
0.5412499000000001,2810
0.5437499,2827
0.5462499000000001,1899
0.5487499,673
0.5512499000000001,254
0.5537499,1053
0.5562499000000001,2244
0.5587499,2935
0.5612499000000001,2599
0.5637499,1477
0.5662499000000001,406
0.5687499,398
0.5712499000000001,1448
0.5737499,2570
0.5762499000000001,2935
0.5787499,2276
0.5812499,1044
0.5837499,261
0.5862499,686
0.5887499,1851
0.5912499,2802
0.5937499,2815
0.5962499,1885
0.5987499000000001,668
0.6012499,256
0.6037499000000001,1050
0.6062499,2234
0.6087499000000001,2916
0.6112499,2576
0.6137499000000001,1459
0.6162499,402
0.6187499000000001,401
0.6212499,1445
0.6237499000000001,2555
0.6262499,2910
0.6287499000000001,2254
0.6312499,1039
0.6337499000000001,275
0.6362499,705
0.6387499000000001,1859
0.6412499,2798
0.6437499,2805
0.6462499,1882
0.6487499,676
0.6512499,270
0.6537499,1068
0.6562499,2241
0.6587499,2916
0.6612499000000001,2584
0.6637499,1480
0.6662499000000001,430
0.6687499,435
0.6712499000000001,1475
0.6737499,2592
0.6762499000000001,2960
0.6787499,2305
0.6812499000000001,1082
0.6837499,298
0.6862499000000001,708
0.6887499,1843
0.6912499000000001,2765
0.6937499,2732
0.6962499000000001,1780
0.6987499,617
0.7012499000000001,315
0.7037499,1090
0.7062499,2246
0.7087499,2897
0.7112499,2560
0.7137499,1469
0.7162499,433
0.7187499,444
0.7212499,1479
0.7237499000000001,2553
0.7262499,2889
0.7287499000000001,2249
0.7312499,1057
0.7337499000000001,302
0.7362499,734
0.7387499000000001,1867
0.7412499,2765
0.7437499000000001,2763
0.7462499,1872
0.7487499000000001,700
0.7512499,319
0.7537499000000001,1118
0.7562499,2252
0.7587499000000001,2884
0.7612499,2547
0.7637499000000001,1464
0.7662499,439
0.7687499000000001,452
0.7712499,1482
0.7737499,2536
0.7762499,2863
0.7787499,2233
0.7812499,1053
0.7837499,314
0.7862499000000001,758
0.7887499,1883
0.7912499000000001,2766
0.7937499,2761
0.7962499000000001,1875
0.7987499,707
0.8012499000000001,319
0.8037499,1115
0.8062499000000001,2239
0.8087499,2861
0.8112499000000001,2533
0.8137499,1469
0.8162499000000001,454
0.8187499,476
0.8212499000000001,1503
0.8237499,2542
0.8262499000000001,2858
0.8287499,2231
0.8312499000000001,1061
0.8337499,333
0.8362499,775
0.8387499,1886
0.8412499,2750
0.8437499,2745
0.8462499,1873
0.8487499000000001,720
0.8512499,343
0.8537499000000001,1135
0.8562499,2246
0.8587499000000001,2852
0.8612499,2529
0.8637499000000001,1474
0.8662499,473
0.8687499000000001,505
0.8712499,1530
0.8737499000000001,2552
0.8762499,2848
0.8787499000000001,2222
0.8812499,1055
0.8837499000000001,335
0.8862499,786
0.8887499000000001,1896
0.8912499,2748
0.8937499000000001,2736
0.8962499,1869
0.8987499,717
0.9012499,344
0.9037499,1142
0.9062499,2244
0.9087499,2844
0.9112499000000001,2520
0.9137499,1466
0.9162499000000001,465
0.9187499,497
0.9212499000000001,1522
0.9237499,2539
0.9262499000000001,2840
0.9287499,2220
0.9312499000000001,1058
0.9337499,333
0.9362499000000001,784
0.9387499,1896
0.9412499000000001,2739
0.9437499,2705
0.9462499000000001,1803
0.9487499,650
0.9512499000000001,299
0.9537499,1127
0.9562499000000001,2246
0.9587499,2848
0.9612499,2526
0.9637499,1474
0.9662499,472
0.9687499,504
0.9712499,1530
0.9737499000000001,2537
0.9762499,2832
0.9787499000000001,2215
0.9812499,1057
0.9837499000000001,338
0.9862499,796
0.9887499000000001,1909
0.9912499,2745
0.9937499000000001,2726
0.9962499,1861
0.9987499000000001,708
1.0012499,344
1.0037498999999999,1155
1.0062499,2252
1.0087499,2844
1.0112499,2516
1.0137498999999999,1463
1.0162499,460
1.0187499,499
1.0212499,1530
1.0237498999999999,2536
1.0262498999999998,2831
1.0287499,2217
1.0312499,1060
1.0337498999999999,343
1.0362498999999998,802
1.0387499,1909
1.0412499,2744
1.0437499,2728
1.0462498999999998,1864
1.0487499,713
1.0512499,352
1.0537499,1165
1.0562498999999999,2259
1.0587499,2839
1.0612499,2508
1.0637499,1456
1.0662498999999999,462
1.0687499,505
1.0712499,1542
1.0737499,2545
1.0762498999999999,2831
1.0787499,2215
1.0812499,1050
1.0837499,330
1.0862498999999999,792
1.0887499,1901
1.0912499,2729
1.0937499,2708
1.0962498999999999,1849
1.0987498999999998,705
1.1012499,348
1.1037499,1165
1.1062499,2252
1.1087498999999998,2827
1.1112499,2504
1.1137499,1461
1.1162499,465
1.1187498999999999,510
1.1212499,1543
1.1237499,2536
1.1262499,2823
1.1287498999999999,2209
1.1312499,1048
1.1337499,339
1.1362499,810
1.1387498999999999,1912
1.1412499,2723
1.1437499,2699
1.1462499,1756
1.1487498999999999,638
1.1512499,375
1.1537499,1173
1.1562499,2259
1.1587498999999999,2824
1.1612498999999998,2494
1.1637499,1451
1.1662499,464
1.1687499,518
1.1712498999999998,1558
1.1737499,2539
1.1762499,2813
1.1787499,2204
1.1812498999999999,1047
1.1837499,339
1.1862499,815
1.1887499,1919
1.1912498999999999,2724
1.1937499,2700
1.1962499,1859
1.1987499,725
1.2012498999999999,375
1.2037499,1194
1.2062499,2260
1.2087499,2815
1.2112498999999999,2492
1.2137499,1458
1.2162499,510
1.2187499,578
1.2212498999999999,1604
1.2237498999999998,2566
1.2262499,2823
1.2287499,2202
1.2312499,1042
1.2337498999999998,330
1.2362499,810
1.2387499,1914
1.2412499,2724
1.2437498999999999,2699
1.2462499,1851
1.2487499,715
1.2512499,372
1.2537498999999999,1203
1.2562499,2275
1.2587499,2826
1.2612499,2492
1.2637498999999999,1450
1.2662499,459
1.2687499,518
1.2712499,1558
1.2737498999999999,2542
1.2762499,2815
1.2787499,2199
1.2812499,1048
1.2837498999999999,349
1.2862498999999998,829
1.2887499,1927
1.2912499,2732
1.2937499,2697
1.2962498999999998,1843
1.2987499,710
1.3012499,367
1.3037499,1189
1.3062498999999999,2263
1.3087499,2823
1.3112499,2486
1.3137499,1443
1.3162498999999999,462
1.3187499,526
1.3212499,1566
1.3237499,2547
1.3262498999999999,2819
1.3287499,2202
1.3312499,1044
1.3337499,343
1.3362498999999999,820
1.3387499,1923
1.3412499,2742
1.3437499,2707
1.3462498999999999,1838
1.3487498999999998,694
1.3512499,354
1.3537499,1187
1.3562499,2276
1.3587498999999998,2835
1.3612499,2487
1.3637499,1285
1.3662499,446
1.3687498999999999,514
1.3712499,1561
1.3737499,2557
1.3762499,2829
1.3787498999999999,2196
1.3812499,1024
1.3837499,322
1.3862499,812
1.3887498999999999,1930
1.3912499,2753
1.3937499,2715
1.3962499,1836
1.3987498999999999,684
1.4012499,336
1.4037499,1173
1.4062499,2271
1.4087498999999999,2839
1.4112498999999998,2491
1.4137499,1427
1.4162499,439
1.4187499,502
1.4212498999999998,1551
1.4237499,2555
1.4262499,2831
1.4287499,2194
1.4312498999999999,1021
1.4337499,320
1.4362499,812
1.4387499,1928
1.4412498999999999,2757
1.4437499,2716
1.4462499,1838
1.4487499,686
1.4512498999999999,343
1.4537499,1181
1.4562499,2281
1.4587499,2850
1.4612498999999999,2499
1.4637499,1429
1.4662499,435
1.4687499,509
1.4712498999999999,1559
1.4737498999999998,2560
1.4762499,2832
1.4787499,2196
1.4812499,1018
1.4837498999999998,310
1.4862499,768
1.4887499,1869
1.4912499,2702
1.4937498999999999,2682
1.4962499,1817
1.4987499,670
1.5012499,339
1.5037498999999999,1194
1.5062499,2300
1.5087499,2863
1.5112499,2507
1.5137498999999999,1430
1.5162499,427
1.5187499,501
1.5212499,1559
1.5237498999999999,2562
1.5262499,2832
1.5287499,2194
1.5312499,1015
1.5337498999999999,310
1.5362499,820
1.5387499,1946
1.5412499,2766
1.5437499,2719
1.5462498999999998,1836
1.5487499,670
1.5512499,330
1.5537499,1190
1.5562498999999999,2286
1.5587499,2844
1.5612499,2502
1.5637499,1434
1.5662498999999999,428
1.5687499,505
1.5712499,1572
1.5737499,2562
1.5762498999999999,2824
1.5787499,2197
1.5812499,1013
1.5837499,299
1.5862498999999999,815
1.5887499,1948
1.5912499,2755
1.5937499,2710
1.5962498999999999,1838
1.5987499,596
1.6012499,349
1.6037499,1281
1.6062499,2283
1.6087498999999998,2826
1.6112499,2489
1.6137499,1424
1.6162499,420
1.6187498999999999,507
1.6212499,1585
1.6237499,2557
1.6262499,2808
1.6287498999999999,2194
1.6312499,1013
1.6337499,302
1.6362499,820
1.6387498999999999,1940
1.6412499,2729
1.6437499,2689
1.6462499,1838
1.6487498999999999,678
1.6512499,336
1.6537499,1205
1.6562499,2276
1.6587498999999999,2806
1.6612499,2479
1.6637499,1435
1.6662499,433
1.6687499,512
1.6712498999999998,1580
1.6737499,2531
1.6762499,2781
1.6787499,2193
1.6812498999999999,1029
1.6837499,319
1.6862499,837
1.6887499,1946
1.6912498999999999,2705
1.6937499,2660
1.6962499,1824
1.6987499,668
1.7012498999999999,335
1.7037499,1214
1.7062499,2275
1.7087499,2789
1.7112498999999999,2466
1.7137499,1435
1.7162499,436
1.7187499,526
1.7212498999999999,1593
1.7237499,2523
1.7262499,2757
1.7287499,2172
1.7312499,1016
1.7337498999999998,314
1.7362499,844
1.7387499,1949
1.7412499,2694
1.7437498999999999,2650
1.7462499,1836
1.7487499,691
1.7512499,357
1.7537498999999999,1237
1.7562499,2283
1.7587499,2813
1.7612499,2507
1.7637498999999999,1482
1.7662499,468
1.7687499,544
1.7712499,1600
1.7737498999999999,2502
1.7762499,2731
1.7787499,2176
1.7812499,1039
1.7837498999999999,336
1.7862499,858
1.7887499,1943
1.7912499,2661
1.7937499,2628
1.7962498999999998,1843
1.7987499,712
1.8012499,385
1.8037499,1261
1.8062498999999999,2271
1.8087499,2748
1.8112499,2447
1.8137499,1448
1.8162498999999999,459
1.8187499,549
1.8212499,1611
1.8237499,2499
1.8262498999999999,2718
1.8287499,2176
1.8312499,1045
1.8337499,346
1.8362498999999999,879
1.8387499,1961
1.8412499,2660
1.8437499,2618
1.8462498999999999,1836
1.8487499,700
1.8512499,375
1.8537499,1256
1.8562499,2257
1.8587498999999998,2724
1.8612499,2434
1.8637499,1450
1.8662499,464
1.8687498999999999,562
1.8712499,1627
1.8737499,2497
1.8762499,2710
1.8787498999999999,2183
1.8812499,1058
1.8837499,356
1.8862499,892
1.8887498999999999,1964
1.8912499,2645
1.8937499,2603
1.8962499,1846
1.8987498999999999,721
1.9012499,391
1.9037499,1269
1.9062499,2249
1.9087498999999999,2702
1.9112499,2426
1.9137499,1458
1.9162499,449
1.9187499,586
1.9212498999999998,1646
1.9237499,2499
1.9262499,2700
1.9287499,2180
1.9312498999999999,1058
1.9337499,362
1.9362499,903
1.9387499,1969
1.9412498999999999,2640
1.9437499,2597
1.9462499,1840
1.9487499,715
1.9512498999999999,393
1.9537499,1289
1.9562499,2265
1.9587499,2703
1.9612498999999999,2425
1.9637499,1453
1.9662499,470
1.9687499,576
1.9712498999999999,1645
1.9737499,2489
1.9762499,2682
1.9787499,2164
1.9812499,1047
1.9837499,354
1.9862499,905
1.9887499,1972
1.9912499,2631
1.9937498999999999,2592
1.9962499,1846
1.9987499,725
2.0012499,404
2.0037499,1300
2.0062499,2270
2.0087498999999998,2707
2.0112499,2428
2.0137499,1464
2.0162499,488
2.0187499,596
2.0212499,1651
2.0237499,2492
2.0262499,2690
2.0287498999999998,2133
2.0312499,1010
2.0337499,335
2.0362499,903
2.0387499,1975
2.0412499,2639
2.0437499,2602
2.0462499,1851
2.0487499,728
2.0512498999999997,436
2.0537499,1384
2.0562499,2321
2.0587499,2692
2.0612499,2413
2.0637499,1451
2.0662499,481
2.0687499,596
2.0712498999999998,1650
2.0737499,2483
2.0762499,2671
2.0787499,2160
2.0812499,1055
2.0837499,380
2.0862499,934
2.0887499,1985
2.0912498999999998,2632
2.0937499,2582
2.0962499,1835
2.0987499,715
2.1012499,402
2.1037499,1301
2.1062499,2267
2.1087499,2694
2.1112499,2420
2.1137498999999997,1458
2.1162499,488
2.1187499,607
2.1212499,1669
2.1237499,2492
2.1262499,2674
2.1287499,2164
2.1312499,1057
2.1337498999999998,378
2.1362499,932
2.1387499,1985
2.1412499,2636
2.1437499,2591
2.1462499,1843
2.1487499,726
2.1512499,412
2.1537498999999998,1310
2.1562499,2271
2.1587499,2695
2.1612499,2415
2.1637499,1450
2.1662499,481
2.1687499,604
2.1712499,1666
2.1737499,2495
2.1762499,2686
2.1787499,2170
2.1812499,1053
2.1837499,367
2.1862499,928
2.1887499,1988
2.1912499,2637
2.1937499,2589
2.1962498999999998,1838
2.1987499,718
2.2012499,410
2.2037499,1321
2.2062499,2284
2.2087499,2705
2.2112499,2421
2.2137499,1445
2.2162498999999998,468
2.2187499,596
2.2212499,1662
2.2237499,2494
2.2262499,2684
2.2287499,2167
2.2312499,1047
2.2337499,364
2.2362499,934
2.2387499,1998
2.2412499,2639
2.2437499,2591
2.2462499,1840
2.2487499,705
2.2512499,391
2.2537499,1305
2.2562499,2268
2.2587498999999998,2686
2.2612499,2417
2.2637499,1451
2.2662499,468
2.2687499,596
2.2712499,1669
2.2737499,2491
2.2762499,2673
2.2787498999999998,2168
2.2812499,1045
2.2837499,360
2.2862499,937
2.2887499,1998
2.2912499,2624
2.2937499,2573
2.2962499,1832
2.2987499,728
2.3012499,447
2.3037499,1376
2.3062499,2317
2.3087499,2700
2.3112499,2412
2.3137499,1440
2.3162499,462
2.3187499,609
2.3212498999999998,1696
2.3237499,2500
2.3262499,2666
2.3287499,2165
2.3312499,1042
2.3337499,352
2.3362499,944
2.3387499,2004
2.3412498999999998,2618
2.3437499,2568
2.3462499,1840
2.3487499,707
2.3512499,404
2.3537499,1343
2.3562499,2286
2.3587499,2678
2.3612499,2410
2.3637499,1445
2.3662499,460
2.3687499,597
2.3712499,1687
2.3737499,2491
2.3762499,2661
2.3787499,2175
2.3812499,1052
2.3837498999999998,359
2.3862499,947
2.3887499,1999
2.3912499,2603
2.3937499,2553
2.3962499,1833
2.3987499,715
2.4012499,414
2.4037498999999998,1347
2.4062499,2273
2.4087499,2653
2.4112499,2394
2.4137499,1451
2.4162499,480
2.4187499,623
2.4212499,1698
2.4237499,2475
2.4262499,2631
2.4287499,2155
2.4312499,1055
2.4337499,386
2.4362499,979
2.4387499,2014
2.4412499,2597
2.4437499,2541
2.4462498999999998,1833
2.4487499,723
2.4512499,433
2.4537499,1371
2.4562499,2281
2.4587499,2652
2.4612499,2399
2.4637499,1459
2.4662498999999998,489
2.4687499,639
2.4712499,1720
2.4737499,2479
2.4762499,2629
2.4787499,2165
2.4812499,1060
2.4837499,373
2.4862499,984
2.4887499,2043
2.4912499,2626
2.4937499,2582
2.4962499,1880
2.4987499,721
2.5012499,410
2.5037499,1408
2.5062499,2346
2.5087498999999998,2715
2.5112499,2421
2.5137499,1385
2.5162499,435
2.5187499,597
2.5212499,1783
2.5237499,2578
2.5262499,2737
2.5287498999999998,2273
2.5312499,1048
2.5337499,272
2.5362499,970
2.5387499,2133
2.5412499,2723
2.5437499,2660
2.5462499,1906
2.5487499,628
2.5512499,285
2.5537499,1379
2.5562499,2346
2.5587499,2690
2.5612499,2428
2.5637499,1403
2.5662499,319
2.5687499,499
2.5712498999999998,1675
2.5737499,2439
2.5762499,2594
2.5787499,2152
2.5812499,978
2.5837499,267
2.5862499,970
2.5887499,2075
2.5912498999999998,2629
2.5937499,2576
2.5962499,1857
2.5987499,655
2.6012499,359
2.6037499,1409
2.6062499,2334
2.6087499,2671
2.6112499,2425
2.6137499,1443
2.6162499,409
2.6187499,601
2.6212499,1767
2.6237499,2499
2.6262499,2629
2.6287499,2176
2.6312499,1005
2.6337498999999998,298
2.6362499,987
2.6387499,2070
2.6412499,2610
2.6437499,2557
2.6462499,1846
2.6487499,660
2.6512499,373
2.6537498999999998,1414
2.6562499,2318
2.6587499,2645
2.6612499,2405
2.6637499,1438
2.6662499,423
2.6687499,626
2.6712499,1782
2.6737499,2499
2.6762499,2616
2.6787499,2162
2.6812499,1007
2.6837499,312
2.6862499,1000
2.6887499,2068
2.6912499,2597
2.6937499,2541
2.6962498999999998,1844
2.6987499,673
2.7012499,386
2.7037499,1413
2.7062499,2294
2.7087499,2615
2.7112499,2386
2.7137499,1437
2.7162498999999998,436
2.7187499,638
2.7212499,1775
2.7237499,2483
2.7262499,2602
2.7287499,2154
2.7312499,1016
2.7337499,336
2.7362499,1008
2.7387499,2044
2.7412499,2550
2.7437499,2491
2.7462499,1809
2.7487499,675
2.7512499,409
2.7537499,1413
2.7562499,2271
2.7587498999999998,2576
2.7612499,2344
2.7637499,1416
2.7662499,446
2.7687499,644
2.7712499,1746
2.7737499,2434
2.7762499,2549
2.7787498999999998,2114
2.7812499,1015
2.7837499,365
2.7862499,1026
2.7887499,2039
2.7912499,2547
2.7937499,2484
2.7962499,1795
2.7987499,679
2.8012499,422
2.8037499,1413
2.8062499,2276
2.8087499,2592
2.8112499,2350
2.8137499,1424
2.8162499,475
2.8187499,671
2.8212498999999998,1756
2.8237499,2450
2.8262499,2566
2.8287499,2118
2.8312499,1018
2.8337499,375
2.8362499,1032
2.8387499,2051
2.8412498999999998,2610
2.8437499,2568
2.8462499,1873
2.8487499,749
2.8512499,475
2.8537499,1427
2.8562499,2275
2.8587499,2592
2.8612499,2344
2.8637499,1416
2.8662499,478
2.8687499,679
2.8712499,1761
2.8737499,2462
2.8762499,2582
2.8787499,2128
2.8812499,1036
2.8837498999999998,399
2.8862499,1042
2.8887499,2039
2.8912499,2549
2.8937499,2484
2.8962499,1799
2.8987499,713
2.9012499,462
2.9037498999999998,1424
2.9062499,2280
2.9087499,2597
2.9112499,2344
2.9137499,1416
2.9162499,478
2.9187499,676
2.9212499,1748
2.9237499,2452
2.9262499,2582
2.9287499,2122
2.9312499,1024
2.9337499,393
2.9362499,1037
2.9387499,2043
2.9412499,2568
2.9437499,2500
2.9462498999999998,1798
2.9487499,699
2.9512499,449
2.9537499,1413
2.9562499,2286
2.9587499,2618
2.9612499,2360
2.9637499,1417
2.9662498999999998,446
2.9687499,752
2.9712499,1817
2.9737499,2460
2.9762499,2586
2.9787499,2115
2.9812499,1021
2.9837499,389
2.9862499,1023
2.9887499,2022
2.9912499,2550
2.9937499,2487
2.9962499,1785
2.9987499,704
3.0012499,462
3.0037499,1409
3.0062499,2270
3.0087499,2602
3.0112499,2344
3.0137499,1411
3.0162499,486
3.0187499,681
3.0212499,1735
3.0237499,2446
3.0262499,2571
3.0287498999999998,2099
3.0312499,1019
3.0337499,401
3.0362499,1024
3.0387499,2015
3.0412499,2552
3.0437499,2489
3.0462499,1793
3.0487499,723
3.0512499,473
3.0537499,1397
3.0562499,2246
3.0587499,2574
3.0612499,2323
3.0637499,1411
3.0662499,512
3.0687499,697
3.0712499,1728
3.0737499,2428
3.0762499,2560
3.0787499,2096
3.0812499,1040
3.0837499,433
3.0862499,1044
3.0887499,2019
3.0912498999999998,2549
3.0937499,2479
3.0962499,1782
3.0987499,726
3.1012499,486
3.1037499,1388
3.1062499,2233
3.1087499,2570
3.1112499,2288
3.1137499,1350
3.1162499,467
3.1187499,676
3.1212499,1716
3.1237499,2434
3.1262499,2574
3.1287499,2110
3.1312499,1058
3.1337499,452
3.1362499,1053
3.1387499,2020
3.1412499,2553
3.1437499,2484
3.1462499,1783
3.1487499,733
3.1512499,496
3.1537498999999998,1400
3.1562499,2251
3.1587499,2597
3.1612499,2341
3.1637499,1422
3.1662499,526
3.1687499,705
3.1712499,1724
3.1737499,2446
3.1762499,2589
3.1787499,2106
3.1812499,1029
3.1837499,415
3.1862499,1019
3.1887499,2019
3.1912499,2589
3.1937499,2529
3.1962499,1799
3.1987499,717
3.2012499,464
3.2037499,1385
3.2062499,2278
3.2087499,2642
3.2112499,2360
3.2137499,1397
3.2162498999999998,470
3.2187499,657
3.2212499,1714
3.2237499,2479
3.2262499,2632
3.2287499,2120
3.2312499,1011
3.2337499,380
3.2362499,994
3.2387499,2019
3.2412499,2611
3.2437499,2550
3.2462499,1801
3.2487499,699
3.2512499,444
3.2537499,1380
3.2562499,2300
3.2587499,2679
3.2612499,2389
3.2637499,1406
3.2662499,467
3.2687499,652
3.2712499,1719
3.2737499,2494
3.2762499,2642
3.2787498999999998,2118
3.2812499,1000
3.2837499,370
3.2862499,1002
3.2887499,2043
3.2912499,2640
3.2937499,2563
3.2962499,1785
3.2987499,662
3.3012499,409
3.3037499,1371
3.3062499,2307
3.3087499,2692
3.3112499,2392
3.3137499,1392
3.3162499,438
3.3187499,626
3.3212499,1709
3.3237499,2500
3.3262499,2653
3.3287499,2125
3.3312499,1002
3.3337499,365
3.3362499,997
3.3387499,2044
3.3412498999999998,2647
3.3437499,2568
3.3462499,1798
3.3487499,679
3.3512499,423
3.3537499,1372
3.3562499,2297
3.3587499,2678
3.3612499,2383
3.3637499,1395
3.3662499,451
3.3687499,642
3.3712499,1720
3.3737499,2502
3.3762499,2650
3.3787499,2120
3.3812499,1002
3.3837499,415
3.3862499,1057
3.3887499,2085
3.3912499,2658
3.3937499,2565
3.3962499,1791
3.3987499,686
3.4012499,433
3.4037498999999998,1371
3.4062499,2286
3.4087499,2660
3.4112499,2367
3.4137499,1393
3.4162499,465
3.4187499,733
3.4212499,1803
3.4237499,2531
3.4262499,2624
3.4287499,2117
3.4312499,1003
3.4337499,377
3.4362499,999
3.4387499,2031
3.4412499,2621
3.4437499,2550
3.4462499,1790
3.4487499,686
3.4512499,439
3.4537499,1387
3.4562499,2307
3.4587499,2681
3.4612499,2384
3.4637499,1397
3.4662498999999998,456
3.4687499,646
3.4712499,1719
3.4737499,2499
3.4762499,2652
3.4787499,2128
3.4812499,999
3.4837499,359
3.4862499,990
3.4887499,2038
3.4912499,2631
3.4937499,2555
3.4962499,1780
3.4987499,647
3.5012499,391
3.5037499,1363
3.5062499,2305
3.5087499,2689
3.5112499,2389
3.5137499,1385
3.5162499,418
3.5187499,607
3.5212499,1708
3.5237499,2500
3.5262499,2657
3.5287498999999998,2123
3.5312499,966
3.5337499,301
3.5362499,936
3.5387499,1980
3.5412499,2587
3.5437499,2542
3.5462499,1803
3.5487499,678
3.5512499,430
3.5537499,1419
3.5562499,2362
3.5587499,2737
3.5612499,2452
3.5637499,1446
3.5662499,460
3.5687499,679
3.5712499,1843
3.5737499,2624
3.5762499,2765
3.5787499,2254
3.5812499,1042
3.5837499,338
3.5862499,1071
3.5887499,2202
3.5912498999999998,2774
3.5937499,2723
3.5962499,1940
3.5987499,584
3.6012499,283
3.6037499,1554
3.6062499,2597
3.6087499,2934
3.6112499,2657
3.6137499,1495
3.6162499,227
3.6187499,475
3.6212499,1936
3.6237499,2774
3.6262499,2911
3.6287499,2429
3.6312499,976
3.6337499,62
3.6362499,995
3.6387499,2386
3.6412499,2985
3.6437499,2918
3.6462499,2054
3.6487499,449
3.6512499,56
3.6537498999999998,1463
3.6562499,2571
3.6587499,2924
3.6612499,2702
3.6637499,1474
3.6662499,62
3.6687499,393
3.6712499,2028
3.6737499,2897
3.6762499,3026
3.6787499,2550
3.6812499,932
3.6837499,0
3.6862499,971
3.6887499,2475
3.6912499,3066
3.6937499,3003
3.6962499,2114
3.6987499,315
3.7012499,0
3.7037499,1575
3.7062499,2761
3.7087499,3088
3.7112499,2863
3.7137499,1472
3.7162498999999998,0
3.7187499,299
3.7212499,2033
3.7237499,2887
3.7262499,2987
3.7287499,2497
3.7312499,696
3.7337499,0
3.7362499,874
3.7387499,2417
3.7412499,2974
3.7437499,2900
3.7462499,1978
3.7487499,46
3.7512499,0
3.7537499,1474
3.7562499,2634
3.7587499,2935
3.7612499,2699
3.7637499,1282
3.7662499,0
3.7687499,256
3.7712499,1985
3.7737499,2823
3.7762499,2911
3.7787498999999998,2415
3.7812499,588
3.7837499,0
3.7862499,828
3.7887499,2346
3.7912499,2902
3.7937499,2837
3.7962499,1923
3.7987499,20
3.8012499,0
3.8037499,1456
3.8062499,2623
3.8087499,2934
3.8112499,2708
3.8137499,1300
3.8162499,0
3.8187499,246
3.8212499,1967
3.8237499,2826
3.8262499,2927
3.8287499,2423
3.8312499,609
3.8337499,0
3.8362499,812
3.8387499,2320
3.8412498999999998,2889
3.8437499,2829
3.8462499,1922
3.8487499,45
3.8512499,0
3.8537499,1443
3.8562499,2607
3.8587499,2922
3.8612499,2674
3.8637499,1285
3.8662499,0
3.8687499,256
3.8712499,1912
3.8737499,2750
3.8762499,2842
3.8787499,2251
3.8812499,494
3.8837499,0
3.8862499,813
3.8887499,2255
3.8912499,2819
3.8937499,2748
3.8962499,1875
3.8987499,164
3.9012499,0
3.9037499,1382
3.9062499,2473
3.9087499,2781
3.9112499,2531
3.9137499,1272
3.9162499,0
3.9187499,280
3.9212499,1778
3.9237499,2611
3.9262499,2771
3.9287499,2297
3.9312499,799
3.9337499,0
3.9362499,821
3.9387499,2167
3.9412499,2755
3.9437499,2700
3.9462499,1875
3.9487499,339
3.9512499,1
3.9537499,1368
3.9562499,2455
3.9587499,2808
3.9612499,2566
3.9637499,1374
3.9662499,41
3.9687499,333
3.9712499,1814
3.9737499,2653
3.9762499,2794
3.9787499,2310
3.9812499,829
3.9837499,0
3.9862499,839
3.9887499,2188
3.9912499,2787
3.9937499,2740
3.9962499,1917
3.9987499,373
4.0012499,20
4.003749900000001,1416
4.0062499,2534
4.008749900000001,2902
4.0112499,2665
4.0137499000000005,1417
4.0162499,8
4.0187499,330
4.021249900000001,1890
4.0237499,2750
4.026249900000001,2895
4.0287499,2402
4.031249900000001,796
4.0337499,0
4.0362499000000005,821
4.0387499,2220
4.0412499,2829
4.043749900000001,2795
4.0462499,1938
4.048749900000001,270
4.0512499,0
4.053749900000001,1388
4.0562499,2513
4.0587499000000005,2885
4.061249900000001,2666
4.0637499,1380
4.066249900000001,0
4.0687499,299
4.071249900000001,1870
4.0737499,2710
4.0762499000000005,2837
4.0787499,2352
4.0812499,747
4.083749900000001,0
4.0862499,854
4.088749900000001,2276
4.0912499,2852
4.093749900000001,2797
4.0962499,1941
4.0987499000000005,240
4.1012499,0
4.1037499,1469
4.106249900000001,2589
4.1087499,2885
4.111249900000001,2632
4.1137499,1321
4.116249900000001,0
4.1187499,294
4.1212499000000005,1896
4.123749900000001,2711
4.1262499,2811
4.128749900000001,2326
4.1312499,699
4.133749900000001,0
4.1362499,842
4.1387499000000005,2251
4.1412499,2798
4.1437499,2724
4.146249900000001,1867
4.1487499,198
4.151249900000001,0
4.1537499,1405
4.156249900000001,2499
4.1587499,2823
4.1612499000000005,2595
4.1637499,1329
4.1662499,0
4.168749900000001,307
4.1712499,1877
4.173749900000001,2719
4.1762499,2853
4.178749900000001,2367
4.1812499,757
4.1837499000000005,0
4.186249900000001,844
4.1887499,2249
4.191249900000001,2832
4.1937499,2784
4.196249900000001,1888
4.1987499,201
4.2012499000000005,0
4.2037499,1411
4.2062499,2505
4.208749900000001,2821
4.2112499,2595
4.213749900000001,1339
4.2162499,0
4.218749900000001,335
4.2212499,1944
4.2237499000000005,2753
4.2262499,2840
4.2287499,2355
4.231249900000001,749
4.2337499,0
4.236249900000001,887
4.2387499,2315
4.241249900000001,2861
4.2437499,2792
4.2462499000000005,1936
4.248749900000001,236
4.2512499,0
4.253749900000001,1488
4.2562499,2600
4.258749900000001,2903
4.2612499,2666
4.2637499000000005,1356
4.2662499,0
4.2687499,325
4.271249900000001,1972
4.2737499,2794
4.276249900000001,2887
4.2787499,2405
4.281249900000001,729
4.2837499,0
4.2862499000000005,897
4.288749900000001,2373
4.2912499,2922
4.293749900000001,2852
4.2962499,1967
4.298749900000001,174
4.3012499,0
4.303749900000001,1501
4.3062499,2637
4.3087499000000005,2937
4.311249900000001,2692
4.3137499,1327
4.316249900000001,-1
4.3187499,299
4.321249900000001,1991
4.3237499,2832
4.3262499000000005,2948
4.3287499,2473
4.3312499,728
4.333749900000001,0
4.3362499,1050
4.338749900000001,2495
4.3412499,3014
4.343749900000001,2984
4.3462499,2068
4.3487499000000005,164
4.351249900000001,-1
4.3537499,1504
4.356249900000001,2684
4.3587499,3024
4.361249900000001,2823
4.3637499,1393
4.366249900000001,0
4.3687499,272
4.3712499000000005,2009
4.373749900000001,2876
4.3762499,3001
4.378749900000001,2512
4.3812499,642
4.383749900000001,0
4.3862499,839
4.3887499000000005,2375
4.3912499,2974
4.3937499,2950
4.396249900000001,2007
4.3987499,11
4.401249900000001,0
4.4037499,1435
4.406249900000001,2628
4.4087499,3006
4.4112499000000005,2813
4.413749900000001,1318
4.4162499,0
4.418749900000001,220
4.4212499,1930
4.423749900000001,2831
4.4262499,3000
4.428749900000001,2499
4.4312499,584
4.4337499000000005,0
4.436249900000001,783
4.4387499,2300
4.441249900000001,2942
4.4437499,2948
4.446249900000001,1991
4.4487499,3
4.4512499000000005,0
4.4537499,1390
4.4562499,2568
4.458749900000001,2955
4.4612499,2753
4.463749900000001,1298
4.4662499,0
4.468749900000001,244
4.4712499,1899
4.4737499000000005,2781
4.476249900000001,2935
4.4787499,2413
4.481249900000001,615
4.4837499,0
4.486249900000001,773
4.4887499,2197
4.491249900000001,2813
4.4937499,2795
4.4962499000000005,1890
4.498749900000001,128
4.5012499,0
4.503749900000001,1342
4.5062499,2450
4.508749900000001,2819
4.5112499,2586
4.5137499000000005,1289
4.5162499,0
4.5187499,280
4.521249900000001,1770
4.5237499,2611
4.526249900000001,2765
4.5287499,2275
4.531249900000001,766
4.5337499,0
4.5362499000000005,813
4.538749900000001,2120
4.5412499,2710
4.543749900000001,2668
4.5462499,1859
4.548749900000001,404
4.5512499,62
4.553749900000001,1348
4.5562499,2389
4.5587499000000005,2739
4.561249900000001,2489
4.5637499,1368
4.566249900000001,175
4.5687499,422
4.571249900000001,1761
4.5737499,2544
4.5762499000000005,2673
4.5787499,2193
4.5812499,900
4.583749900000001,132
4.5862499,918
4.588749900000001,2102
4.5912499,2666
4.593749900000001,2599
4.5962499,1827
4.5987499000000005,554
4.601249900000001,254
4.6037499,1374
4.606249900000001,2346
4.6087499,2695
4.611249900000001,2423
4.6137499,1385
4.616249900000001,325
4.6187499,544
4.6212499000000005,1751
4.623749900000001,2536
4.6262499,2671
4.628749900000001,2164
4.6312499,950
4.633749900000001,246
4.6362499,947
4.6387499000000005,2067
4.6412499,2657
4.6437499,2586
4.646249900000001,1806
4.6487499,615
4.651249900000001,336
4.6537499,1366
4.656249900000001,2339
4.6587499,2723
4.6612499000000005,2426
4.663749900000001,1395
4.6662499,389
4.668749900000001,580
4.6712499,1712
4.673749900000001,2533
4.6762499,2690
4.678749900000001,2144
4.6812499,965
4.6837499000000005,291
4.686249900000001,939
4.6887499,2033
4.691249900000001,2678
4.6937499,2608
4.696249900000001,1801
4.6987499,647
4.7012499000000005,370
4.7037499,1332
4.7062499,2333
4.708749900000001,2763
4.7112499,2431
4.713749900000001,1387
4.7162499,412
4.718749900000001,586
4.7212499,1691
4.7237499000000005,2574
4.726249900000001,2760
4.7287499,2159
4.731249900000001,982
4.7337499,323
4.736249900000001,908
4.7387499,1981
4.741249900000001,2695
4.7437499,2628
4.7462499000000005,1774
4.748749900000001,634
4.7512499,370
4.753749900000001,1305
4.7562499,2360
4.758749900000001,2840
4.7612499,2466
4.7637499000000005,1380
4.7662499,410
4.7687499,570
4.771249900000001,1661
4.7737499,2613
4.776249900000001,2827
4.7787499,2165
4.781249900000001,970
4.7837499,314
4.7862499000000005,986
4.788749900000001,2115
4.7912499,2835
4.793749900000001,2718
4.7962499,1796
4.798749900000001,634
4.8012499,356
4.803749900000001,1263
4.8062499,2368
4.8087499000000005,2897
4.811249900000001,2492
4.8137499,1369
4.816249900000001,389
4.8187499,539
4.821249900000001,1643
4.8237499,2665
4.8262499000000005,2900
4.8287499,2184
4.8312499,955
4.833749900000001,285
4.8362499,855
4.838749900000001,2022
4.8412499,2860
4.843749900000001,2758
4.8462499,1777
4.8487499000000005,588
4.851249900000001,306
4.8537499,1221
4.856249900000001,2392
4.8587499,2963
4.861249900000001,2523
4.8637499,1347
4.866249900000001,348
4.8687499,493
4.8712499000000005,1609
4.873749900000001,2686
4.8762499,2935
4.878749900000001,2173
4.8812499,907
4.883749900000001,227
4.8862499,802
4.8887499000000005,2012
4.8912499,2905
4.8937499,2794
4.896249900000001,1757
4.8987499,538
4.901249900000001,251
4.9037499,1184
4.906249900000001,2412
4.9087499,3014
4.9112499000000005,2539
4.913749900000001,1311
4.9162499,290
4.918749900000001,443
4.9212499,1598
4.923749900000001,2734
4.9262499,2995
4.928749900000001,2181
4.9312499,863
4.9337499000000005,161
4.936249900000001,749
4.9387499,2014
4.941249900000001,2960
4.9437499,2845
4.946249900000001,1751
4.9487499,488
4.9512499000000005,191
4.9537499,1156
4.9562499,2444
4.958749900000001,3084
4.9612499,2573
4.963749900000001,1284
4.9662499,223
4.968749900000001,380
4.9712499,1577
4.9737499000000005,2781
4.976249900000001,3053
4.9787499,2183
4.981249900000001,812
4.9837499,93
4.986249900000001,712
4.9887499,2038
4.991249900000001,3032
4.9937499,2903
4.9962499000000005,1749
4.998749900000001,433
5.0012499,122
5.003749900000001,1113
5.0062499,2463
5.008749900000001,3171
5.0112499,2655
5.0137499000000005,1305
5.0162499,191
5.0187499,339
5.021249900000001,1575
5.0237499,2824
5.026249900000001,3106
5.0287499,2194
5.031249900000001,771
5.0337499,33
5.0362499000000005,673
5.038749900000001,2054
5.0412499,3095
5.043749900000001,2953
5.0462499,1753
5.048749900000001,398
5.0512499,82
5.053749900000001,1113
5.0562499,2516
5.0587499000000005,3193
5.061249900000001,2639
5.0637499,1247
5.066249900000001,120
5.0687499,293
5.071249900000001,1587
5.0737499,2890
5.0762499000000005,3163
5.0787499,2223
5.0812499,757
5.083749900000001,3
5.0862499,657
5.088749900000001,2081
5.0912499,3148
5.093749900000001,2979
5.0962499,1741
5.0987499000000005,354
5.101249900000001,46
5.1037499,1108
5.106249900000001,2558
5.1087499,3211
5.111249900000001,2655
5.1137499,1229
5.116249900000001,83
5.1187499,272
5.1212499000000005,1592
5.123749900000001,2929
5.1262499,3177
5.128749900000001,2228
5.1312499,737
5.133749900000001,0
5.1362499,647
5.1387499000000005,2099
5.1412499,3175
5.1437499,2990
5.146249900000001,1735
5.1487499,331
5.151249900000001,35
5.1537499,1106
5.156249900000001,2574
5.1587499,3213
5.1612499000000005,2661
5.163749900000001,1219
5.1662499,64
5.168749900000001,265
5.1712499,1600
5.173749900000001,2948
5.1762499,3182
5.178749900000001,2217
5.1812499,712
5.1837499000000005,0
5.186249900000001,639
5.1887499,2101
5.191249900000001,3182
5.1937499,2992
5.196249900000001,1728
5.1987499,314
5.2012499000000005,20
5.2037499,1106
5.2062499,2578
5.208749900000001,3214
5.2112499,2649
5.213749900000001,1195
5.2162499,40
5.218749900000001,264
5.2212499,1606
5.2237499000000005,2956
5.226249900000001,3182
5.2287499,2207
5.231249900000001,692
5.2337499,0
5.236249900000001,641
5.2387499,2107
5.241249900000001,3204
5.2437499,2918
5.2462499000000005,1593
5.248749900000001,293
5.2512499,8
5.253749900000001,1103
5.2562499,2584
5.258749900000001,3214
5.2612499,2652
5.2637499000000005,1190
5.2662499,32
5.2687499,257
5.271249900000001,1603
5.2737499,2958
5.276249900000001,3184
5.2787499,2180
5.281249900000001,641
5.2837499,0
5.2862499000000005,633
5.288749900000001,2106
5.2912499,3188
5.293749900000001,2990
5.2962499,1716
5.298749900000001,296
5.3012499,17
5.303749900000001,1110
5.3062499,2587
5.3087499000000005,3214
5.311249900000001,2647
5.3137499,1182
5.316249900000001,29
5.3187499,265
5.321249900000001,1614
5.3237499,2972
5.3262499000000005,3184
5.3287499,2202
5.3312499,676
5.333749900000001,0
5.3362499,646
5.338749900000001,2118
5.3412499,3192
5.343749900000001,2982
5.3462499,1699
5.3487499000000005,278
5.351249900000001,9
5.3537499,1111
5.356249900000001,2599
5.3587499,3214
5.361249900000001,2644
5.3637499,1176
5.366249900000001,17
5.3687499,259
5.3712499000000005,1611
5.373749900000001,2971
5.3762499,3184
5.378749900000001,2202
5.3812499,676
5.383749900000001,0
5.3862499,647
5.3887499000000005,2126
5.3912499,3198
5.3937499,2990
5.396249900000001,1709
5.3987499,291
5.401249900000001,24
5.4037499,1123
5.406249900000001,2608
5.4087499,3216
5.4112499000000005,2642
5.413749900000001,1173
5.4162499,20
5.418749900000001,262
5.4212499,1616
5.423749900000001,2976
5.4262499,3184
5.428749900000001,2194
5.4312499,667
5.4337499000000005,0
5.436249900000001,650
5.4387499,2136
5.441249900000001,3203
5.4437499,2987
5.446249900000001,1691
5.4487499,264
5.4512499000000005,6
5.4537499,1118
5.4562499,2610
5.458749900000001,3216
5.4612499,2637
5.463749900000001,1160
5.4662499,6
5.468749900000001,261
5.4712499,1617
5.4737499000000005,2980
5.476249900000001,3184
5.4787499,2188
5.481249900000001,660
5.4837499,0
5.486249900000001,650
5.4887499,2128
5.491249900000001,3195
5.4937499,2972
5.4962499000000005,1672
5.498749900000001,243
5.5012499,1
5.503749900000001,1098
5.5062499,2584
5.508749900000001,3214
5.5112499,2631
5.5137499000000005,1148
5.5162499,1
5.5187499,254
5.521249900000001,1601
5.5237499,2958
5.526249900000001,3175
5.5287499,2167
5.531249900000001,633
5.5337499,0
5.5362499000000005,636
5.538749900000001,2114
5.5412499,3190
5.543749900000001,2969
5.5462499,1667
5.548749900000001,254
5.5512499,43
5.553749900000001,1161
5.5562499,2649
5.5587499000000005,3217
5.561249900000001,2626
5.5637499,1142
5.566249900000001,3
5.5687499,264
5.571249900000001,1624
5.5737499,2987
5.5762499000000005,3182
5.5787499,2186
5.5812499,657
5.583749900000001,0
5.5862499,662
5.588749900000001,2149
5.5912499,3206
5.593749900000001,2987
5.5962499,1691
5.5987499000000005,273
5.601249900000001,27
5.6037499,1142
5.606249900000001,2644
5.6087499,3217
5.611249900000001,2650
5.6137499,1182
5.616249900000001,38
5.6187499,288
5.6212499000000005,1661
5.623749900000001,3032
5.6262499,3192
5.628749900000001,2215
5.6312499,694
5.633749900000001,0
5.6362499,686
5.6387499000000005,2186
5.6412499,3214
5.6437499,3005
5.646249900000001,1722
5.6487499,306
5.651249900000001,43
5.6537499,1161
5.656249900000001,2660
5.6587499,3219
5.6612499000000005,2650
5.663749900000001,1179
5.6662499,33
5.668749900000001,291
5.6712499,1662
5.673749900000001,3029
5.6762499,3188
5.678749900000001,2193
5.6812499,665
5.6837499000000005,0
5.686249900000001,678
5.6887499,2291
5.691249900000001,3216
5.6937499,2914
5.696249900000001,1687
5.6987499,267
5.7012499000000005,24
5.7037499,1139
5.7062499,2634
5.708749900000001,3216
5.7112499,2634
5.713749900000001,1155
5.7162499,12
5.718749900000001,280
5.7212499,1646
5.7237499000000005,3006
5.726249900000001,3184
5.7287499,2181
5.731249900000001,652
5.7337499,0
5.736249900000001,663
5.7387499,2152
5.741249900000001,3206
5.7437499,2977
5.7462499000000005,1674
5.748749900000001,257
5.7512499,25
5.753749900000001,1140
5.7562499,2636
5.758749900000001,3217
5.7612499,2634
5.7637499000000005,1153
5.7662499,11
5.7687499,280
5.771249900000001,1648
5.7737499,3009
5.776249900000001,3184
5.7787499,2180
5.781249900000001,654
5.7837499,0
5.7862499000000005,673
5.788749900000001,2164
5.7912499,3208
5.793749900000001,2977
5.7962499,1672
5.798749900000001,256
5.8012499,30
5.803749900000001,1150
5.8062499,2642
5.8087499000000005,3216
5.811249900000001,2623
5.8137499,1137
5.816249900000001,4
5.8187499,277
5.821249900000001,1601
5.8237499,2953
5.8262499000000005,3171
5.8287499,2157
5.8312499,633
5.833749900000001,0
5.8362499,676
5.838749900000001,2168
5.8412499,3209
5.843749900000001,2979
5.8462499,1677
5.8487499000000005,262
5.851249900000001,33
5.8537499,1145
5.856249900000001,2636
5.8587499,3216
5.861249900000001,2628
5.8637499,1147
5.866249900000001,9
5.8687499,280
5.8712499000000005,1643
5.873749900000001,2997
5.8762499,3179
5.878749900000001,2165
5.8812499,639
5.883749900000001,0
5.8862499,668
5.8887499000000005,2157
5.8912499,3204
5.8937499,2974
5.896249900000001,1674
5.8987499,259
5.901249900000001,30
5.9037499,1147
5.906249900000001,2637
5.9087499,3216
5.9112499000000005,2616
5.913749900000001,1135
5.9162499,6
5.918749900000001,281
5.9212499,1648
5.923749900000001,3003
5.9262499,3180
5.928749900000001,2173
5.9312499,650
5.9337499000000005,0
5.936249900000001,671
5.9387499,2155
5.941249900000001,3204
5.9437499,2969
5.946249900000001,1662
5.9487499,251
5.9512499000000005,30
5.9537499,1147
5.9562499,2640
5.958749900000001,3217
5.9612499,2629
5.963749900000001,1152
5.9662499,14
5.968749900000001,283
5.9712499,1648
5.9737499000000005,3006
5.976249900000001,3182
5.9787499,2168
5.981249900000001,644
5.9837499,0
5.986249900000001,678
5.9887499,2167
5.991249900000001,3206
5.9937499,2971
5.9962499000000005,1669
5.998749900000001,259
6.0012499,35
6.003749900000001,1148
6.0062499,2637
6.008749900000001,3216
6.0112499,2610
6.0137499000000005,1126
6.016249900000001,6
6.0187499,286
6.021249900000001,1654
6.0237499,3005
6.026249900000001,3177
6.0287499,2154
6.031249900000001,634
6.0337499,0
6.0362499000000005,681
6.038749900000001,2170
6.0412499,3206
6.043749900000001,2968
6.0462499,1664
6.048749900000001,259
6.0512499,38
6.053749900000001,1160
6.0562499,2647
6.0587499000000005,3216
6.061249900000001,2610
6.0637499,1127
6.066249900000001,4
6.0687499,285
6.071249900000001,1650
6.0737499,3003
6.0762499000000005,3179
6.078749900000001,2155
6.0812499,633
6.083749900000001,0
6.0862499,679
6.088749900000001,2172
6.0912499,3214
6.093749900000001,3003
6.0962499,1716
6.0987499000000005,306
6.101249900000001,48
6.1037499,1166
6.106249900000001,2650
6.1087499,3216
6.111249900000001,2610
6.1137499,1127
6.116249900000001,6
6.1187499,290
6.1212499000000005,1659
6.123749900000001,3011
6.1262499,3179
6.128749900000001,2157
6.1312499,633
6.133749900000001,0
6.1362499,794
6.1387499000000005,2294
6.141249900000001,3214
6.1437499,2968
6.146249900000001,1662
6.1487499,256
6.151249900000001,40
6.1537499,1163
6.156249900000001,2655
6.1587499,3217
6.1612499000000005,2615
6.163749900000001,1131
6.1662499,8
6.168749900000001,291
6.1712499,1662
6.173749900000001,3014
6.1762499,3179
6.178749900000001,2164
6.1812499,641
6.1837499000000005,0
6.186249900000001,686
6.1887499,2178
6.191249900000001,3209
6.1937499,2966
6.196249900000001,1656
6.1987499,248
6.2012499000000005,37
6.203749900000001,1161
6.2062499,2650
6.208749900000001,3216
6.2112499,2610
6.213749900000001,1127
6.2162499,8
6.218749900000001,293
6.2212499,1662
6.2237499000000005,3018
6.226249900000001,3180
6.2287499,2162
6.231249900000001,641
6.2337499,0
6.236249900000001,691
6.2387499,2184
6.241249900000001,3209
6.2437499,2961
6.2462499000000005,1654
6.248749900000001,252
6.2512499,41
6.253749900000001,1166
6.2562499,2649
6.258749900000001,3216
6.2612499,2602
6.2637499000000005,1123
6.266249900000001,8
6.2687499,301
6.271249900000001,1674
6.2737499,3018
6.276249900000001,3175
6.2787499,2149
6.281249900000001,630
6.2837499,0
6.2862499000000005,692
6.288749900000001,2181
6.2912499,3208
6.293749900000001,2961
6.2962499,1648
6.298749900000001,248
6.3012499,41
6.303749900000001,1171
6.3062499,2658
6.3087499000000005,3216
6.311249900000001,2603
6.3137499,1119
6.316249900000001,4
6.3187499,296
6.321249900000001,1669
6.3237499,3013
6.3262499000000005,3174
6.328749900000001,2147
6.3312499,626
6.333749900000001,0
6.3362499,699
6.338749900000001,2191
6.3412499,3208
6.343749900000001,2960
6.3462499,1646
6.3487499000000005,241
6.351249900000001,38
6.3537499,1160
6.356249900000001,2642
6.3587499,3214
6.361249900000001,2574
6.3637499,1053
6.366249900000001,0
6.3687499,283
6.3712499000000005,1654
6.373749900000001,3003
6.3762499,3172
6.378749900000001,2147
6.3812499,630
6.383749900000001,0
6.3862499,707
6.3887499000000005,2199
6.391249900000001,3209
6.3937499,2960
6.396249900000001,1645
6.3987499,244
6.401249900000001,41
6.4037499,1168
6.406249900000001,2652
6.4087499,3216
6.4112499000000005,2595
6.413749900000001,1108
6.4162499,3
6.418749900000001,302
6.4212499,1679
6.423749900000001,3026
6.4262499,3175
6.428749900000001,2147
6.4312499,623
6.4337499000000005,0
6.436249900000001,705
6.4387499,2197
6.441249900000001,3209
6.4437499,2951
6.446249900000001,1632
6.4487499,236
6.4512499000000005,48
6.453749900000001,1187
6.4562499,2673
6.458749900000001,3216
6.4612499,2599
6.463749900000001,1115
6.4662499,8
6.468749900000001,307
6.4712499,1685
6.4737499000000005,3027
6.476249900000001,3174
6.4787499,2138
6.481249900000001,618
6.4837499,0
6.486249900000001,708
6.4887499,2197
6.491249900000001,3209
6.4937499,2958
6.4962499000000005,1643
6.498749900000001,246
6.5012499,49
6.503749900000001,1187
6.5062499,2671
6.508749900000001,3216
6.5112499,2597
6.5137499000000005,1111
6.516249900000001,6
6.5187499,310
6.521249900000001,1685
6.5237499,3026
6.526249900000001,3172
6.5287499,2136
6.531249900000001,615
6.5337499,0
6.5362499000000005,708
6.538749900000001,2201
6.5412499,3209
6.543749900000001,2950
6.5462499,1633
6.548749900000001,236
6.5512499,49
6.553749900000001,1190
6.5562499,2671
6.5587499000000005,3216
6.561249900000001,2584
6.5637499,1097
6.566249900000001,3
6.5687499,312
6.571249900000001,1695
6.5737499,3034
6.5762499000000005,3172
6.578749900000001,2135
6.5812499,613
6.583749900000001,0
6.5862499,816
6.588749900000001,2323
6.5912499,3214
6.593749900000001,2948
6.5962499,1624
6.5987499000000005,225
6.601249900000001,48
6.6037499,1184
6.606249900000001,2663
6.6087499,3214
6.611249900000001,2582
6.6137499,1094
6.616249900000001,1
6.6187499,309
6.6212499000000005,1687
6.623749900000001,3024
6.6262499,3169
6.628749900000001,2120
6.6312499,597
6.633749900000001,0
6.6362499,757
6.6387499000000005,2255
6.641249900000001,3216
6.6437499,2951
6.646249900000001,1622
6.6487499,222
6.651249900000001,49
6.6537499,1195
6.656249900000001,2681
6.6587499,3216
6.6612499000000005,2582
6.663749900000001,1087
6.6662499,1
6.668749900000001,317
6.6712499,1699
6.673749900000001,3034
6.6762499,3171
6.678749900000001,2123
6.6812499,602
6.6837499000000005,0
6.686249900000001,720
6.6887499,2217
6.691249900000001,3211
6.6937499,2945
6.696249900000001,1619
6.6987499,227
6.7012499000000005,51
6.703749900000001,1198
6.7062499,2681
6.708749900000001,3214
6.7112499,2576
6.713749900000001,1086
6.7162499,1
6.718749900000001,320
6.7212499,1699
6.7237499000000005,3035
6.726249900000001,3169
6.7287499,2117
6.731249900000001,594
6.7337499,0
6.736249900000001,726
6.7387499,2223
6.741249900000001,3211
6.7437499,2940
6.7462499000000005,1614
6.748749900000001,228
6.7512499,56
6.753749900000001,1205
6.7562499,2687
6.758749900000001,3216
6.7612499,2579
6.7637499000000005,1087
6.766249900000001,3
6.7687499,328
6.771249900000001,1717
6.7737499,3053
6.776249900000001,3171
6.7787499,2115
6.781249900000001,594
6.7837499,0
6.7862499000000005,729
6.788749900000001,2225
6.7912499,3211
6.793749900000001,2939
6.7962499,1614
6.798749900000001,227
6.8012499,56
6.803749900000001,1206
6.8062499,2686
6.8087499000000005,3216
6.811249900000001,2570
6.8137499,1077
6.816249900000001,1
6.8187499,325
6.821249900000001,1711
6.8237499,3040
6.8262499000000005,3164
6.828749900000001,2109
6.8312499,591
6.833749900000001,0
6.8362499,731
6.838749900000001,2225
6.8412499,3211
6.843749900000001,2935
6.8462499,1608
6.8487499000000005,222
6.851249900000001,59
6.8537499,1216
6.856249900000001,2692
6.8587499,3214
6.861249900000001,2562
6.8637499,1061
6.866249900000001,0
6.8687499,325
6.8712499000000005,1709
6.873749900000001,3037
6.8762499,3164
6.878749900000001,2106
6.8812499,586
6.883749900000001,0
6.8862499,737
6.8887499000000005,2234
6.891249900000001,3213
6.8937499,2931
6.896249900000001,1593
6.8987499,211
6.901249900000001,61
6.9037499,1185
6.906249900000001,2637
6.9087499,3209
6.9112499000000005,2544
6.913749900000001,1052
6.9162499,0
6.918749900000001,323
6.9212499,1714
6.923749900000001,3042
6.9262499,3164
6.928749900000001,2106
6.9312499,586
6.9337499000000005,0
6.936249900000001,741
6.9387499,2239
6.941249900000001,3213
6.9437499,2929
6.946249900000001,1595
6.9487499,209
6.9512499000000005,58
6.953749900000001,1218
6.9562499,2699
6.958749900000001,3216
6.9612499,2563
6.963749900000001,1066
6.9662499,0
6.968749900000001,331
6.9712499,1722
6.9737499000000005,3048
6.976249900000001,3163
6.9787499,2099
6.981249900000001,581
6.9837499,0
6.986249900000001,741
6.9887499,2239
6.991249900000001,3211
6.9937499,2929
6.9962499000000005,1593
6.998749900000001,211
7.0012499,59
7.003749900000001,1219
7.0062499,2700
7.008749900000001,3214
7.0112499,2557
7.0137499000000005,1063
7.016249900000001,1
7.0187499,341
7.021249900000001,1735
7.0237499,3061
7.026249900000001,3166
7.0287499,2101
7.031249900000001,485
7.0337499,0
7.0362499000000005,847
7.038749900000001,2236
7.0412499,3211
7.043749900000001,2929
7.0462499,1592
7.048749900000001,209
7.0512499,62
7.053749900000001,1227
7.0562499,2702
7.0587499000000005,3214
7.061249900000001,2552
7.0637499,1053
7.066249900000001,0
7.0687499,336
7.071249900000001,1725
7.0737499,3050
7.0762499000000005,3161
7.078749900000001,2091
7.0812499,572
7.083749900000001,0
7.0862499,744
7.088749900000001,2242
7.0912499,3213
7.093749900000001,2921
7.0962499,1580
7.0987499000000005,194
7.101249900000001,56
7.1037499,1218
7.106249900000001,2697
7.1087499,3214
7.111249900000001,2553
7.1137499,1055
7.116249900000001,0
7.1187499,339
7.1212499000000005,1732
7.123749900000001,3056
7.1262499,3163
7.128749900000001,2094
7.1312499,575
7.133749900000001,0
7.1362499,752
7.1387499000000005,2251
7.141249900000001,3213
7.1437499,2926
7.146249900000001,1585
7.1487499,199
7.151249900000001,61
7.1537499,1224
7.156249900000001,2700
7.1587499,3214
7.1612499000000005,2547
7.163749900000001,1050
7.1662499,1
7.168749900000001,341
7.1712499,1732
7.173749900000001,3059
7.1762499,3179
7.178749900000001,2136
7.1812499,621
7.1837499000000005,0
7.186249900000001,752
7.1887499,2241
7.191249900000001,3211
7.1937499,2918
7.196249900000001,1580
7.1987499,203
7.2012499000000005,64
7.203749900000001,1231
7.2062499,2707
7.208749900000001,3214
7.2112499,2542
7.213749900000001,1040
7.2162499,0
7.218749900000001,338
7.2212499,1727
7.2237499000000005,3043
7.226249900000001,3155
7.2287499,2081
7.231249900000001,572
7.2337499,0
7.236249900000001,755
7.2387499,2242
7.241249900000001,3208
7.2437499,2908
7.2462499000000005,1571
7.248749900000001,203
7.2512499,70
7.253749900000001,1237
7.2562499,2702
7.258749900000001,3213
7.2612499,2545
7.2637499000000005,1053
7.266249900000001,1
7.2687499,344
7.271249900000001,1727
7.2737499,3030
7.276249900000001,3146
7.2787499,2073
7.281249900000001,570
7.2837499,-1
7.2862499000000005,758
7.288749900000001,2241
7.2912499,3204
7.293749900000001,2906
7.2962499,1575
7.298749900000001,215
7.3012499,69
7.303749900000001,1229
7.3062499,2686
7.3087499000000005,3211
7.311249900000001,2542
7.3137499,1065
7.316249900000001,11
7.3187499,356
7.321249900000001,1732
7.3237499,3027
7.3262499000000005,3148
7.328749900000001,2086
7.3312499,588
7.333749900000001,0
7.3362499,762
7.338749900000001,2233
7.3412499,3201
7.343749900000001,2905
7.3462499,1588
7.3487499000000005,236
7.351249900000001,78
7.3537499,1229
7.356249900000001,2671
7.3587499,3208
7.361249900000001,2533
7.3637499,1069
7.366249900000001,27
7.3687499,364
7.3712499000000005,1727
7.373749900000001,3000
7.3762499,3132
7.378749900000001,2077
7.3812499,599
7.383749900000001,0
7.3862499,766
7.3887499000000005,2220
7.391249900000001,3188
7.3937499,2897
7.396249900000001,1598
7.3987499,267
7.401249900000001,96
7.4037499,1237
7.406249900000001,2652
7.4087499,3201
7.4112499000000005,2528
7.413749900000001,1084
7.4162499,49
7.418749900000001,370
7.4212499,1709
7.423749900000001,2969
7.4262499,3122
7.428749900000001,2085
7.4312499,638
7.4337499000000005,9
7.436249900000001,784
7.4387499,2207
7.441249900000001,3163
7.4437499,2879
7.446249900000001,1551
7.4487499,230
7.4512499000000005,83
7.453749900000001,1213
7.4562499,2613
7.458749900000001,3188
7.4612499,2521
7.463749900000001,1105
7.4662499,91
7.468749900000001,406
7.4712499,1716
7.4737499000000005,2945
7.476249900000001,3098
7.4787499,2073
7.481249900000001,650
7.4837499,43
7.486249900000001,895
7.4887499,2300
7.491249900000001,3140
7.4937499,2864
7.4962499000000005,1600
7.498749900000001,309
7.5012499,143
7.503749900000001,1255
7.5062499,2628
7.508749900000001,3185
7.5112499,2508
7.5137499000000005,1095
7.516249900000001,88
7.5187499,406
7.521249900000001,1719
7.5237499,2950
7.526249900000001,3101
7.5287499,2072
7.531249900000001,642
7.5337499,20
7.5362499000000005,789
7.538749900000001,2196
7.5412499,3143
7.543749900000001,2863
7.5462499,1595
7.548749900000001,301
7.5512499,136
7.553749900000001,1248
7.5562499,2623
7.5587499000000005,3182
7.561249900000001,2499
7.5637499,1086
7.566249900000001,83
7.5687499,399
7.571249900000001,1708
7.5737499,2939
7.5762499000000005,3095
7.578749900000001,2070
7.5812499,647
7.583749900000001,35
7.5862499,800
7.588749900000001,2199
7.5912499,3137
7.593749900000001,2853
7.5962499,1585
7.5987499000000005,299
7.601249900000001,140
7.6037499,1250
7.606249900000001,2624
7.6087499,3180
7.611249900000001,2499
7.6137499,1090
7.616249900000001,90
7.6187499,412
7.6212499000000005,1725
7.623749900000001,2951
7.6262499,3097
7.628749900000001,2064
7.6312499,641
7.633749900000001,33
7.6362499,804
7.6387499000000005,2199
7.641249900000001,3135
7.6437499,2853
7.646249900000001,1590
7.6487499,302
7.651249900000001,140
7.6537499,1248
7.656249900000001,2620
7.6587499,3175
7.6612499000000005,2495
7.663749900000001,1090
7.6662499,98
7.668749900000001,418
7.6712499,1728
7.673749900000001,2951
7.6762499,3093
7.678749900000001,2060
7.6812499,641
7.6837499000000005,37
7.686249900000001,808
7.6887499,2205
7.691249900000001,3143
7.6937499,2858
7.696249900000001,1596
7.6987499,317
7.7012499000000005,161
7.703749900000001,1269
7.7062499,2632
7.708749900000001,3174
7.7112499,2481
7.713749900000001,1077
7.7162499,119
7.718749900000001,475
7.7212499,1783
7.7237499000000005,2987
7.726249900000001,3103
7.7287499,2059
7.731249900000001,633
7.7337499,29
7.736249900000001,802
7.7387499,2207
7.741249900000001,3143
7.743749900000001,2850
7.7462499000000005,1579
7.748749900000001,293
7.7512499,141
7.753749900000001,1261
7.7562499,2634
7.758749900000001,3184
7.7612499,2495
7.7637499000000005,1079
7.766249900000001,83
7.7687499,418
7.771249900000001,1741
7.7737499,2964
7.776249900000001,3098
7.7787499,2057
7.781249900000001,634
7.7837499,33
7.7862499000000005,808
7.788749900000001,2210
7.7912499,3143
7.793749900000001,2852
7.7962499,1579
7.798749900000001,296
7.8012499,148
7.803749900000001,1268
7.806249900000001,2642
7.8087499000000005,3184
7.811249900000001,2487
7.8137499,1071
7.816249900000001,82
7.8187499,418
7.821249900000001,1737
7.8237499,2955
7.8262499000000005,3085
7.828749900000001,2044
7.8312499,618
7.833749900000001,24
7.8362499,807
7.838749900000001,2213
7.8412499,3145
7.843749900000001,2848
7.8462499,1574
7.8487499000000005,293
7.851249900000001,148
7.8537499,1268
7.856249900000001,2640
7.8587499,3182
7.861249900000001,2484
7.8637499,1068
7.866249900000001,80
7.868749900000001,415
7.8712499000000005,1733
7.873749900000001,2956
7.8762499,3087
7.878749900000001,2044
7.8812499,618
7.883749900000001,22
7.8862499,808
7.8887499000000005,2220
7.891249900000001,3151
7.8937499,2855
7.896249900000001,1580
7.8987499,299
7.901249900000001,153
7.9037499,1269
7.906249900000001,2636
7.9087499,3179
7.9112499000000005,2484
7.913749900000001,1073
7.9162499,85
7.918749900000001,422
7.9212499,1733
7.923749900000001,2948
7.9262499,3080
7.928749900000001,1938
7.931249900000001,546
7.9337499000000005,59
7.936249900000001,929
7.9387499,2220
7.941249900000001,3142
7.9437499,2840
7.946249900000001,1572
7.9487499,296
7.9512499000000005,156
7.953749900000001,1274
7.9562499,2639
7.958749900000001,3177
7.9612499,2481
7.963749900000001,1071
7.9662499,93
7.968749900000001,433
7.9712499,1740
7.9737499000000005,2947
7.976249900000001,3076
7.9787499,2036
7.981249900000001,623
7.9837499,41
7.986249900000001,802
7.9887499,2159
7.991249900000001,3077
7.993749900000001,2795
7.9962499000000005,1543
7.998749900000001,294
8.0012499,167
8.003749899999999,1287
8.0062499,2644
8.0087499,3172
8.0112499,2470
8.013749899999999,1061
8.0162499,83
8.0187499,427
8.021249899999999,1740
8.0237499,2947
8.0262499,3074
8.0287499,2039
8.031249899999999,631
8.0337499,49
8.0362499,825
8.0387499,2205
8.0412499,3119
8.0437499,2819
8.0462499,1554
8.048749899999999,293
8.0512499,162
8.0537499,1277
8.0562499,2631
8.0587499,3164
8.0612499,2463
8.0637499,1065
8.066249899999999,98
8.0687499,446
8.0712499,1751
8.0737499,2950
8.076249899999999,3071
8.0787499,2035
8.0812499,630
8.083749899999999,51
8.0862499,831
8.0887499,2220
8.0912499,3132
8.093749899999999,2826
8.0962499,1561
8.0987499,302
8.1012499,174
8.1037499,1287
8.1062499,2636
8.1087499,3167
8.111249899999999,2470
8.1137499,1069
8.1162499,106
8.1187499,457
8.1212499,1762
8.1237499,2956
8.1262499,3071
8.128749899999999,2035
8.1312499,631
8.1337499,54
8.1362499,837
8.138749899999999,2217
8.1412499,3124
8.1437499,2821
8.146249899999999,1556
8.1487499,302
8.1512499,174
8.1537499,1285
8.156249899999999,2629
8.1587499,3163
8.1612499,2466
8.1637499,1071
8.1662499,104
8.1687499,447
8.1712499,1745
8.173749899999999,2937
8.1762499,3059
8.1787499,2030
8.1812499,634
8.1837499,64
8.1862499,845
8.1887499,2225
8.191249899999999,3126
8.1937499,2821
8.1962499,1561
8.1987499,309
8.201249899999999,185
8.2037499,1300
8.2062499,2642
8.208749899999999,3164
8.2112499,2463
8.2137499,1068
8.2162499,107
8.218749899999999,454
8.2212499,1746
8.2237499,2935
8.2262499,3055
8.2287499,2015
8.2312499,621
8.2337499,54
8.236249899999999,842
8.2387499,2226
8.2412499,3124
8.2437499,2811
8.2462499,1546
8.2487499,301
8.2512499,180
8.253749899999999,1295
8.2562499,2639
8.2587499,3192
8.2612499,2518
8.263749899999999,1116
8.2662499,140
8.2687499,467
8.271249899999999,1745
8.2737499,2927
8.2762499,3048
8.2787499,2019
8.281249899999999,636
8.2837499,74
8.2862499,855
8.2887499,2230
8.2912499,3127
8.2937499,2823
8.2962499,1561
8.298749899999999,310
8.3012499,183
8.3037499,1295
8.3062499,2639
8.3087499,3164
8.3112499,2460
8.3137499,1069
8.316249899999999,112
8.3187499,465
8.3212499,1764
8.3237499,2950
8.326249899999999,3066
8.3287499,2033
8.3312499,641
8.333749899999999,72
8.3362499,857
8.3387499,2231
8.3412499,3124
8.343749899999999,2813
8.3462499,1551
8.3487499,306
8.3512499,188
8.3537499,1301
8.3562499,2639
8.3587499,3158
8.361249899999999,2449
8.3637499,1052
8.3662499,96
8.3687499,449
8.3712499,1751
8.3737499,2939
8.3762499,3053
8.378749899999999,1911
8.3812499,543
8.3837499,80
8.3862499,852
8.388749899999999,2226
8.3912499,3122
8.3937499,2815
8.396249899999999,1553
8.3987499,307
8.4012499,185
8.4037499,1290
8.406249899999999,2626
8.4087499,3153
8.4112499,2452
8.4137499,1060
8.4162499,109
8.4187499,465
8.4212499,1762
8.423749899999999,2942
8.4262499,3053
8.4287499,2014
8.4312499,623
8.4337499,64
8.4362499,857
8.4387499,2234
8.441249899999999,3126
8.4437499,2810
8.4462499,1545
8.4487499,302
8.451249899999999,186
8.4537499,1305
8.4562499,2647
8.458749899999999,3163
8.4612499,2450
8.4637499,1055
8.4662499,104
8.468749899999999,465
8.4712499,1766
8.4737499,2948
8.4762499,3058
8.4787499,2019
8.4812499,631
8.4837499,72
8.486249899999999,863
8.4887499,2236
8.4912499,3124
8.4937499,2805
8.4962499,1542
8.4987499,301
8.5012499,188
8.503749899999999,1305
8.5062499,2644
8.5087499,3159
8.5112499,2449
8.513749899999999,1052
8.5162499,104
8.5187499,465
8.521249899999999,1761
8.5237499,2939
8.5262499,3048
8.5287499,1975
8.531249899999999,563
8.5337499,11
8.5362499,815
8.5387499,2212
8.5412499,3122
8.5437499,2818
8.5462499,1559
8.548749899999999,312
8.5512499,194
8.5537499,1310
8.5562499,2647
8.5587499,3159
8.5612499,2449
8.5637499,1055
8.566249899999999,107
8.5687499,467
8.5712499,1766
8.5737499,2948
8.5762499,3056
8.5787499,2017
8.5812499,630
8.583749899999999,75
8.5862499,865
8.5887499,2239
8.5912499,3130
8.593749899999999,2813
8.5962499,1551
8.5987499,309
8.6012499,194
8.6037499,1311
8.6062499,2650
8.6087499,3163
8.611249899999999,2452
8.6137499,1057
8.6162499,107
8.6187499,467
8.6212499,1769
8.6237499,2947
8.6262499,3056
8.628749899999999,2019
8.6312499,625
8.6337499,64
8.6362499,860
8.6387499,2242
8.6412499,3137
8.6437499,2816
8.646249899999999,1548
8.6487499,302
8.6512499,191
8.6537499,1308
8.656249899999999,2644
8.6587499,3159
8.6612499,2450
8.6637499,1055
8.6662499,106
8.6687499,470
8.6712499,1775
8.673749899999999,2955
8.6762499,3061
8.6787499,2020
8.6812499,628
8.6837499,69
8.6862499,860
8.6887499,2236
8.691249899999999,3126
8.6937499,2806
8.6962499,1545
8.6987499,304
8.7012499,196
8.7037499,1316
8.7062499,2652
8.708749899999999,3163
8.7112499,2450
8.7137499,1057
8.7162499,106
8.718749899999999,468
8.7212499,1774
8.7237499,2955
8.7262499,3058
8.7287499,2014
8.7312499,621
8.7337499,64
8.736249899999999,863
8.7387499,2242
8.7412499,3132
8.7437499,2811
8.7462499,1543
8.7487499,294
8.7512499,178
8.753749899999999,1301
8.7562499,2647
8.7587499,3161
8.7612499,2446
8.7637499,1045
8.7662499,96
8.7687499,462
8.771249899999999,1775
8.7737499,2963
8.7762499,3064
8.7787499,2015
8.781249899999999,620
8.7837499,59
8.7862499,855
8.7887499,2246
8.7912499,3138
8.7937499,2816
8.7962499,1543
8.798749899999999,310
8.8012499,240
8.8037499,1368
8.8062499,2699
8.8087499,3182
8.8112499,2450
8.8137499,1040
8.816249899999999,91
8.8187499,460
8.8212499,1770
8.8237499,2956
8.8262499,3058
8.8287499,2009
8.8312499,609
8.833749899999999,58
8.8362499,960
8.8387499,2350
8.8412499,3158
8.843749899999999,2816
8.8462499,1546
8.8487499,301
8.8512499,193
8.8537499,1318
8.8562499,2660
8.8587499,3171
8.861249899999999,2454
8.8637499,1048
8.8662499,98
8.8687499,465
8.8712499,1780
8.8737499,2971
8.8762499,3072
8.878749899999999,2027
8.8812499,625
8.8837499,64
8.8862499,866
8.8887499,2254
8.8912499,3145
8.8937499,2823
8.896249899999999,1546
8.8987499,296
8.9012499,190
8.9037499,1319
8.906249899999999,2666
8.9087499,3174
8.9112499,2454
8.9137499,1045
8.9162499,91
8.9187499,464
8.9212499,1777
8.923749899999999,2963
8.9262499,3056
8.9287499,2004
8.9312499,605
8.9337499,53
8.9362499,863
8.9387499,2259
8.941249899999999,3151
8.9437499,2823
8.9462499,1538
8.9487499,281
8.9512499,177
8.9537499,1318
8.9562499,2674
8.958749899999999,3184
8.9612499,2463
8.9637499,1047
8.9662499,85
8.968749899999999,460
8.9712499,1788
8.9737499,2984
8.9762499,3079
8.9787499,2014
8.9812499,599
8.9837499,37
8.986249899999999,850
8.9887499,2259
8.9912499,3163
8.9937499,2834
8.9962499,1542
8.9987499,270
9.0012499,159
9.003749899999999,1306
9.0062499,2668
9.0087499,3179
9.0112499,2452
9.0137499,1028
9.0162499,70
9.0187499,452
9.021249899999999,1788
9.0237499,2989
9.0262499,3079
9.0287499,2009
9.031249899999999,588
9.0337499,30
9.0362499,845
9.0387499,2249
9.0412499,3142
9.0437499,2808
9.0462499,1521
9.048749899999999,269
9.0512499,172
9.0537499,1318
9.0562499,2666
9.0587499,3172
9.0612499,2447
9.0637499,1036
9.066249899999999,80
9.0687499,446
9.0712499,1709
9.0737499,2884
9.0762499,3001
9.0787499,1973
9.0812499,597
9.083749899999999,64
9.0862499,874
9.0887499,2255
9.0912499,3132
9.093749899999999,2805
9.0962499,1540
9.0987499,299
9.1012499,191
9.1037499,1310
9.1062499,2639
9.1087499,3143
9.111249899999999,2431
9.1137499,1047
9.1162499,112
9.1187499,483
9.1212499,1772
9.1237499,2929
9.1262499,3027
9.128749899999999,1998
9.1312499,625
9.1337499,80
9.1362499,868
9.1387499,2222
9.1412499,3090
9.1437499,2776
9.146249899999999,1533
9.1487499,314
9.1512499,211
9.1537499,1313
9.156249899999999,2620
9.1587499,3117
9.1612499,2417
9.1637499,1052
9.1662499,130
9.1687499,496
9.1712499,1770
9.173749899999999,2914
9.1762499,3009
9.1787499,1991
9.1812499,631
9.1837499,98
9.1862499,886
9.1887499,2226
9.191249899999999,3080
9.1937499,2766
9.1962499,1535
9.1987499,330
9.2012499,233
9.2037499,1332
9.2062499,2621
9.208749899999999,3111
9.2112499,2417
9.2137499,1060
9.2162499,138
9.218749899999999,501
9.2212499,1764
9.2237499,2893
9.2262499,2989
9.2287499,1986
9.2312499,644
9.2337499,116
9.236249899999999,899
9.2387499,2220
9.2412499,3059
9.2437499,2748
9.2462499,1535
9.2487499,341
9.2512499,249
9.253749899999999,1332
9.2562499,2594
9.2587499,3074
9.2612499,2396
9.2637499,1068
9.2662499,172
9.2687499,538
9.271249899999999,1778
9.2737499,2879
9.2762499,2966
9.2787499,1988
9.281249899999999,671
9.2837499,151
9.2862499,916
9.2887499,2199
9.2912499,3029
9.2937499,2637
9.2962499,1414
9.298749899999999,359
9.3012499,275
9.3037499,1343
9.3062499,2581
9.3087499,3048
9.3112499,2383
9.3137499,1081
9.316249899999999,198
9.3187499,557
9.3212499,1777
9.3237499,2853
9.3262499,2945
9.3287499,1994
9.3312499,702
9.333749899999999,196
9.3362499,958
9.3387499,2226
9.3412499,3058
9.343749899999999,2786
9.3462499,1617
9.3487499,444
9.3512499,335
9.3537499,1371
9.3562499,2576
9.3587499,3034
9.361249899999999,2394
9.3637499,1118
9.3662499,251
9.3687499,607
9.3712499,1806
9.3737499,2856
9.3762499,2942
9.378749899999999,2007
9.3812499,729
9.3837499,227
9.3862499,974
9.3887499,2209
9.3912499,2984
9.3937499,2697
9.396249899999999,1566
9.3987499,435
9.4012499,343
9.4037499,1372
9.406249899999999,2552
9.4087499,2997
9.4112499,2365
9.4137499,1111
9.4162499,256
9.4187499,609
9.4212499,1786
9.423749899999999,2816
9.4262499,2900
9.4287499,1981
9.4312499,728
9.4337499,233
9.4362499,976
9.4387499,2199
9.441249899999999,2969
9.4437499,2687
9.4462499,1564
9.4487499,436
9.4512499,352
9.4537499,1380
9.4562499,2550
9.458749899999999,2987
9.4612499,2360
9.4637499,1116
9.4662499,267
9.468749899999999,621
9.4712499,1786
9.4737499,2802
9.4762499,2882
9.4787499,1973
9.4812499,728
9.4837499,243
9.486249899999999,984
9.4887499,2199
9.4912499,2958
9.4937499,2681
9.4962499,1572
9.4987499,454
9.5012499,373
9.503749899999999,1395
9.5062499,2552
9.5087499,2980
9.5112499,2365
9.5137499,1134
9.5162499,291
9.5187499,647
9.521249899999999,1811
9.5237499,2815
9.5262499,2889
9.5287499,1980
9.531249899999999,733
9.5337499,241
9.5362499,978
9.5387499,2189
9.5412499,2943
9.5437499,2666
9.5462499,1566
9.548749899999999,459
9.5512499,381
9.5537499,1400
9.5562499,2555
9.5587499,2989
9.5612499,2376
9.5637499,1144
9.566249899999999,296
9.5687499,650
9.5712499,1812
9.5737499,2816
9.5762499,2892
9.5787499,1985
9.5812499,737
9.583749899999999,243
9.5862499,978
9.5887499,2181
9.5912499,2935
9.593749899999999,2658
9.5962499,1551
9.5987499,433
9.6012499,344
9.6037499,1356
9.6062499,2510
9.6087499,2947
9.611249899999999,2312
9.6137499,1048
9.6162499,201
9.6187499,570
9.6212499,1748
9.6237499,2765
9.6262499,2856
9.628749899999999,1964
9.6312499,726
9.6337499,240
9.6362499,974
9.6387499,2168
9.6412499,2916
9.6437499,2640
9.646249899999999,1546
9.6487499,438
9.6512499,356
9.6537499,1372
9.656249899999999,2518
9.6587499,2945
9.6612499,2333
9.6637499,1103
9.6662499,259
9.6687499,610
9.6712499,1770
9.673749899999999,2773
9.6762499,2858
9.6787499,1967
9.6812499,728
9.6837499,236
9.6862499,978
9.6887499,2176
9.691249899999999,2919
9.6937499,2642
9.6962499,1543
9.6987499,441
9.7012499,365
9.7037499,1384
9.7062499,2524
9.708749899999999,2945
9.7112499,2333
9.7137499,1108
9.7162499,267
9.718749899999999,618
9.7212499,1775
9.7237499,2776
9.7262499,2855
9.7287499,1964
9.7312499,731
9.7337499,246
9.736249899999999,979
9.7387499,2165
9.7412499,2903
9.7437499,2628
9.7462499,1540
9.7487499,444
9.7512499,418
9.753749899999999,1477
9.7562499,2582
9.7587499,2932
9.7612499,2323
9.7637499,1100
9.7662499,269
9.7687499,625
9.771249899999999,1772
9.7737499,2755
9.7762499,2829
9.7787499,1941
9.781249899999999,723
9.7837499,248
9.7862499,992
9.7887499,2178
9.7912499,2908
9.7937499,2631
9.7962499,1542
9.798749899999999,446
9.8012499,377
9.8037499,1393
9.8062499,2520
9.8087499,2932
9.8112499,2323
9.8137499,1110
9.816249899999999,286
9.8187499,647
9.8212499,1790
9.8237499,2757
9.8262499,2824
9.8287499,1946
9.8312499,731
9.833749899999999,257
9.8362499,997
9.8387499,2173
9.8412499,2892
9.843749899999999,2616
9.8462499,1542
9.8487499,456
9.8512499,389
9.8537499,1395
9.8562499,2500
9.8587499,2903
9.861249899999999,2315
9.8637499,1119
9.8662499,299
9.8687499,660
9.8712499,1799
9.8737499,2760
9.8762499,2827
9.878749899999999,1956
9.8812499,750
9.8837499,325
9.8862499,1073
9.8887499,2215
9.8912499,2897
9.8937499,2607
9.896249899999999,1532
9.8987499,451
9.9012499,385
9.9037499,1395
9.906249899999999,2497
9.9087499,2895
9.9112499,2302
9.9137499,1106
9.9162499,294
9.9187499,670
9.9212499,1811
9.923749899999999,2765
9.9262499,2827
9.9287499,1956
9.9312499,749
9.9337499,283
9.9362499,1024
9.9387499,2188
9.941249899999999,2895
9.9437499,2620
9.9462499,1548
9.9487499,465
9.9512499,401
9.9537499,1413
9.9562499,2523
9.958749899999999,2924
9.9612499,2321
9.9637499,1115
9.9662499,298
9.968749899999999,662
9.9712499,1804
9.9737499,2779
9.9762499,2848
9.9787499,1972
9.9812499,754
9.9837499,281
9.986249899999999,1023
9.9887499,2202
9.9912499,2926
9.9937499,2645
9.9962499,1559
9.9987499,465
10.0012499,402
10.003749899999999,1419
10.0062499,2544
10.0087499,2950
10.0112499,2334
10.0137499,1110
10.0162499,283
10.0187499,650
10.021249899999999,1804
10.0237499,2787
10.0262499,2850
10.0287499,1951
10.031249899999999,720
10.0337499,249
10.0362499,1003
10.0387499,2196
10.0412499,2926
10.0437499,2636
10.0462499,1533
10.048749899999999,430
10.0512499,370
10.0537499,1398
10.0562499,2536
10.0587499,2948
10.0612499,2328
10.0637499,1092
10.066249899999999,256
10.0687499,630
10.0712499,1791
10.0737499,2777
10.0762499,2844
10.0787499,1943
10.0812499,702
10.083749899999999,228
10.0862499,994
10.0887499,2196
10.0912499,2929
10.093749899999999,2639
10.0962499,1524
10.0987499,407
10.1012499,348
10.1037499,1388
10.1062499,2531
10.1087499,2943
10.111249899999999,2320
10.1137499,1076
10.1162499,235
10.1187499,620
10.1212499,1799
10.1237499,2792
10.1262499,2852
10.128749899999999,1935
10.1312499,668
10.1337499,188
10.1362499,974
10.1387499,2191
10.1412499,2924
10.1437499,2634
10.146249899999999,1514
10.1487499,388
10.1512499,328
10.1537499,1347
10.156249899999999,2475
10.1587499,2889
10.1612499,2288
10.1637499,1050
10.1662499,211
10.1687499,615
10.1712499,1811
10.173749899999999,2795
10.1762499,2850
10.1787499,1936
10.1812499,663
10.1837499,180
10.1862499,976
10.1887499,2188
10.191249899999999,2898
10.1937499,2571
10.1962499,1310
10.1987499,35
10.2012499,29
10.2037499,1023
10.2062499,2075
10.208749899999999,2412
10.2112499,2020
10.2137499,1042
10.2162499,441
10.218749899999999,907
10.2212499,1994
10.2237499,2687
10.2262499,2636
10.2287499,1899
10.2312499,781
10.2337499,381
10.236249899999999,1208
10.2387499,2223
10.2412499,2690
10.2437499,2437
10.2462499,1551
10.2487499,567
10.2512499,576
10.253749899999999,1617
10.2562499,2473
10.2587499,2678
10.2612499,2207
10.2637499,1168
10.2662499,431
10.2687499,881
10.271249899999999,1959
10.2737499,2629
10.2762499,2592
10.2787499,1911
10.281249899999999,820
10.2837499,423
10.2862499,1248
10.2887499,2234
10.2912499,2676
10.2937499,2439
10.2962499,1575
10.298749899999999,591
10.3012499,597
10.3037499,1633
10.3062499,2462
10.3087499,2658
10.3112499,2215
10.3137499,1182
10.316249899999999,439
10.3187499,881
10.3212499,1938
10.3237499,2582
10.3262499,2565
10.3287499,1925
10.3312499,850
10.333749899999999,454
10.3362499,1271
10.3387499,2228
10.3412499,2645
10.343749899999999,2425
10.3462499,1580
10.3487499,599
10.3512499,605
10.3537499,1632
10.3562499,2436
10.3587499,2631
10.361249899999999,2210
10.3637499,1192
10.3662499,452
10.3687499,894
10.3712499,1943
10.3737499,2570
10.3762499,2547
10.378749899999999,1912
10.3812499,836
10.3837499,443
10.3862499,1266
10.3887499,2215
10.3912499,2632
10.3937499,2417
10.396249899999999,1575
10.3987499,591
10.4012499,597
10.4037499,1621
10.406249899999999,2420
10.4087499,2618
10.4112499,2209
10.4137499,1194
10.4162499,451
10.4187499,889
10.4212499,1936
10.423749899999999,2578
10.4262499,2597
10.4287499,1977
10.4312499,884
10.4337499,460
10.4362499,1260
10.4387499,2193
10.441249899999999,2610
10.4437499,2407
10.4462499,1575
10.4487499,589
10.4512499,594
10.4537499,1621
10.4562499,2415
10.458749899999999,2613
10.4612499,2204
10.4637499,1185
10.4662499,441
10.468749899999999,886
10.4712499,1932
10.4737499,2553
10.4762499,2542
10.4787499,1922
10.4812499,842
10.4837499,443
10.486249899999999,1263
10.4887499,2202
10.4912499,2611
10.4937499,2400
10.4962499,1561
10.4987499,575
10.5012499,580
10.503749899999999,1611
10.5062499,2405
10.5087499,2603
10.5112499,2196
10.5137499,1176
10.5162499,428
10.5187499,870
10.521249899999999,1914
10.5237499,2537
10.5262499,2529
10.5287499,1906
10.531249899999999,821
10.5337499,410
10.5362499,1234
10.5387499,2178
10.5412499,2592
10.5437499,2388
10.5462499,1548
10.548749899999999,551
10.5512499,547
10.5537499,1579
10.5562499,2373
10.5587499,2573
10.5612499,2157
10.5637499,1127
10.566249899999999,372
10.5687499,813
10.5712499,1853
10.5737499,2470
10.5762499,2455
10.5787499,1832
10.5812499,744
10.583749899999999,338
10.5862499,1163
10.5887499,2107
10.5912499,2518
10.593749899999999,2304
10.5962499,1450
10.5987499,452
10.6012499,460
10.6037499,1506
10.6062499,2313
10.6087499,2510
10.611249899999999,2097
10.6137499,1073
10.6162499,327
10.6187499,787
10.6212499,1849
10.6237499,2475
10.6262499,2462
10.628749899999999,1832
10.6312499,736
10.6337499,331
10.6362499,1171
10.6387499,2130
10.6412499,2547
10.6437499,2334
10.646249899999999,1479
10.6487499,476
10.6512499,480
10.6537499,1530
10.656249899999999,2334
10.6587499,2531
10.6612499,2118
10.6637499,995
10.6662499,312
10.6687499,866
10.6712499,1843
10.673749899999999,2471
10.6762499,2460
10.6787499,1830
10.6812499,726
10.6837499,317
10.6862499,1165
10.6887499,2123
10.691249899999999,2537
10.6937499,2318
10.6962499,1414
10.6987499,401
10.7012499,414
10.7037499,1485
10.7062499,2304
10.708749899999999,2515
10.7112499,2109
10.7137499,1073
10.7162499,319
10.718749899999999,787
10.7212499,1859
10.7237499,2486
10.7262499,2473
10.7287499,1844
10.7312499,749
10.7337499,346
10.736249899999999,1194
10.7387499,2154
10.7412499,2570
10.7437499,2362
10.7462499,1506
10.7487499,496
10.7512499,505
10.753749899999999,1572
10.7562499,2378
10.7587499,2578
10.7612499,2170
10.7637499,1132
10.7662499,368
10.7687499,831
10.771249899999999,1902
10.7737499,2528
10.7762499,2518
10.7787499,1899
10.781249899999999,799
10.7837499,388
10.7862499,1239
10.7887499,2199
10.7912499,2616
10.7937499,2415
10.7962499,1563
10.798749899999999,551
10.8012499,559
10.8037499,1627
10.8062499,2434
10.8087499,2634
10.8112499,2228
10.8137499,1190
10.816249899999999,428
10.8187499,895
10.8212499,1962
10.8237499,2579
10.8262499,2568
10.8287499,1948
10.8312499,842
10.833749899999999,433
10.8362499,1289
10.8387499,2249
10.8412499,2658
10.843749899999999,2455
10.8462499,1606
10.8487499,591
10.8512499,601
10.8537499,1661
10.8562499,2463
10.8587499,2658
10.861249899999999,2249
10.8637499,1211
10.8662499,447
10.8687499,920
10.8712499,1998
10.8737499,2620
10.8762499,2607
10.878749899999999,1973
10.8812499,863
10.8837499,452
10.8862499,1313
10.8887499,2275
10.8912499,2686
10.8937499,2476
10.896249899999999,1621
10.8987499,601
10.9012499,607
10.9037499,1677
10.906249899999999,2486
10.9087499,2686
10.9112499,2280
10.9137499,1231
10.9162499,464
10.9187499,932
10.9212499,2007
10.923749899999999,2624
10.9262499,2613
10.9287499,1986
10.9312499,871
10.9337499,460
10.9362499,1322
10.9387499,2283
10.941249899999999,2695
10.9437499,2489
10.9462499,1630
10.9487499,607
10.9512499,617
10.9537499,1690
10.9562499,2491
10.958749899999999,2684
10.9612499,2273
10.9637499,1226
10.9662499,496
10.968749899999999,987
10.9712499,2059
10.9737499,2660
10.9762499,2621
10.9787499,1972
10.9812499,845
10.9837499,433
10.986249899999999,1301
10.9887499,2271
10.9912499,2686
10.9937499,2476
10.9962499,1616
10.9987499,586
11.0012499,597
11.003749899999999,1677
11.0062499,2489
11.0087499,2681
11.0112499,2263
11.0137499,1203
11.0162499,435
11.0187499,921
11.021249899999999,2009
11.0237499,2628
11.0262499,2620
11.0287499,1991
11.031249899999999,866
11.0337499,449
11.0362499,1318
11.0387499,2280
11.0412499,2689
11.0437499,2484
11.0462499,1622
11.048749899999999,589
11.0512499,599
11.0537499,1683
11.0562499,2499
11.0587499,2697
11.0612499,2281
11.0637499,1216
11.066249899999999,438
11.0687499,918
11.0712499,2010
11.0737499,2634
11.0762499,2616
11.0787499,1983
11.0812499,854
11.083749899999999,435
11.0862499,1308
11.0887499,2278
11.0912499,2690
11.093749899999999,2479
11.0962499,1614
11.0987499,578
11.1012499,586
11.1037499,1675
11.1062499,2491
11.1087499,2687
11.111249899999999,2268
11.1137499,1200
11.1162499,420
11.1187499,908
11.1212499,2015
11.1237499,2649
11.1262499,2597
11.128749899999999,1891
11.1312499,758
11.1337499,444
11.1362499,1313
11.1387499,2302
11.1412499,2715
11.1437499,2489
11.146249899999999,1608
11.1487499,567
11.1512499,586
11.1537499,1685
11.156249899999999,2504
11.1587499,2690
11.1612499,2270
11.1637499,1203
11.1662499,425
11.1687499,908
11.1712499,1998
11.173749899999999,2611
11.1762499,2586
11.1787499,1946
11.1812499,815
11.1837499,401
11.1862499,1290
11.1887499,2278
11.191249899999999,2700
11.1937499,2494
11.1962499,1627
11.1987499,583
11.2012499,588
11.2037499,1680
11.2062499,2495
11.208749899999999,2687
11.2112499,2268
11.2137499,1197
11.2162499,409
11.218749899999999,887
11.2212499,1993
11.2237499,2624
11.2262499,2611
11.2287499,1973
11.2312499,834
11.2337499,414
11.236249899999999,1269
11.2387499,2230
11.2412499,2652
11.2437499,2460
11.2462499,1603
11.2487499,563
11.2512499,575
11.253749899999999,1672
11.2562499,2486
11.2587499,2678
11.2612499,2260
11.2637499,1189
11.2662499,399
11.2687499,881
11.271249899999999,1988
11.2737499,2621
11.2762499,2608
11.2787499,1967
11.281249899999999,823
11.2837499,398
11.2862499,1284
11.2887499,2268
11.2912499,2686
11.2937499,2473
11.2962499,1596
11.298749899999999,547
11.3012499,559
11.3037499,1662
11.3062499,2481
11.3087499,2678
11.3112499,2263
11.3137499,1190
11.316249899999999,399
11.3187499,878
11.3212499,1980
11.3237499,2611
11.3262499,2600
11.3287499,1961
11.3312499,818
11.333749899999999,394
11.3362499,1281
11.3387499,2265
11.3412499,2679
11.343749899999999,2465
11.3462499,1588
11.3487499,541
11.3512499,547
11.3537499,1648
11.3562499,2468
11.3587499,2663
11.361249899999999,2249
11.3637499,1174
11.3662499,386
11.3687499,871
11.3712499,1978
11.3737499,2608
11.3762499,2597
11.378749899999999,1961
11.3812499,813
11.3837499,385
11.3862499,1269
11.3887499,2252
11.3912499,2669
11.3937499,2463
11.396249899999999,1593
11.3987499,541
11.4012499,546
11.4037499,1648
11.406249899999999,2471
11.4087499,2668
11.4112499,2247
11.4137499,1168
11.4162499,375
11.4187499,860
11.4212499,1970
11.423749899999999,2605
11.4262499,2595
11.4287499,1961
11.4312499,815
11.4337499,385
11.4362499,1268
11.4387499,2254
11.441249899999999,2669
11.4437499,2460
11.4462499,1583
11.4487499,533
11.4512499,539
11.4537499,1645
11.4562499,2473
11.458749899999999,2669
11.4612499,2255
11.4637499,1179
11.4662499,386
11.468749899999999,868
11.4712499,1981
11.4737499,2615
11.4762499,2592
11.4787499,1943
11.4812499,796
11.4837499,372
11.486249899999999,1266
11.4887499,2262
11.4912499,2684
11.4937499,2468
11.4962499,1592
11.4987499,541
11.5012499,551
11.503749899999999,1654
11.5062499,2489
11.5087499,2719
11.5112499,2294
11.5137499,1206
11.5162499,404
11.5187499,876
11.521249899999999,1993
11.5237499,2631
11.5262499,2595
11.5287499,1935
11.531249899999999,800
11.5337499,388
11.5362499,1284
11.5387499,2300
11.5412499,2724
11.5437499,2470
11.5462499,1569
11.548749899999999,528
11.5512499,557
11.5537499,1716
11.5562499,2740
11.5587499,3037
11.5612499,2460
11.5637499,1185
11.566249899999999,286
11.5687499,744
11.5712499,1977
11.5737499,2861
11.5762499,2903
11.5787499,2068
11.5812499,758
11.583749899999999,256
11.5862499,1145
11.5887499,2331
11.5912499,2977
11.593749899999999,2644
11.5962499,1509
11.5987499,383
11.6012499,402
11.6037499,1559
11.6062499,2629
11.6087499,2976
11.611249899999999,2417
11.6137499,1155
11.6162499,259
11.6187499,708
11.6212499,1938
11.6237499,2827
11.6262499,2871
11.628749899999999,2038
11.6312499,741
11.6337499,244
11.6362499,1118
11.6387499,2296
11.6412499,2929
11.6437499,2671
11.646249899999999,1600
11.6487499,430
11.6512499,386
11.6537499,1517
11.656249899999999,2579
11.6587499,2931
11.6612499,2379
11.6637499,1127
11.6662499,235
11.6687499,670
11.6712499,1880
11.673749899999999,2763
11.6762499,2811
11.6787499,1983
11.6812499,697
11.6837499,193
11.6862499,1055
11.6887499,2226
11.691249899999999,2869
11.6937499,2620
11.6962499,1558
11.6987499,396
11.7012499,348
11.7037499,1467
11.7062499,2515
11.708749899999999,2864
11.7112499,2321
11.7137499,1092
11.7162499,215
11.718749899999999,652
11.7212499,1848
11.7237499,2721
11.7262499,2769
11.7287499,1959
11.7312499,689
11.7337499,191
11.736249899999999,1042
11.7387499,2191
11.7412499,2818
11.7437499,2576
11.7462499,1538
11.7487499,388
11.7512499,338
11.753749899999999,1455
11.7562499,2494
11.7587499,2769
11.7612499,2197
11.7637499,1095
11.7662499,215
11.7687499,647
11.771249899999999,1835
11.7737499,2697
11.7762499,2753
11.7787499,1919
11.781249899999999,642
11.7837499,159
11.7862499,1029
11.7887499,2186
11.7912499,2811
11.7937499,2579
11.7962499,1554
11.798749899999999,410
11.8012499,360
11.8037499,1471
11.8062499,2491
11.8087499,2827
11.8112499,2312
11.8137499,1106
11.816249899999999,243
11.8187499,684
11.8212499,1867
11.8237499,2711
11.8262499,2761
11.8287499,1986
11.8312499,733
11.833749899999999,246
11.8362499,1103
11.8387499,2228
11.8412499,2824
11.843749899999999,2599
11.8462499,1593
11.8487499,456
11.8512499,414
11.8537499,1529
11.8562499,2528
11.8587499,2853
11.861249899999999,2359
11.8637499,1168
11.8662499,302
11.8687499,741
11.8712499,1911
11.8737499,2729
11.8762499,2776
11.878749899999999,2027
11.8812499,786
11.8837499,298
11.8862499,1152
11.8887499,2252
11.8912499,2824
11.8937499,2600
11.896249899999999,1609
11.8987499,468
11.9012499,420
11.9037499,1532
11.906249899999999,2502
11.9087499,2810
11.9112499,2336
11.9137499,1160
11.9162499,293
11.9187499,734
11.9212499,1896
11.923749899999999,2676
11.9262499,2716
11.9287499,1993
11.9312499,758
11.9337499,267
11.9362499,1132
11.9387499,2213
11.941249899999999,2758
11.9437499,2550
11.9462499,1588
11.9487499,454
11.9512499,414
11.9537499,1527
11.9562499,2462
11.958749899999999,2753
11.9612499,2309
11.9637499,1148
11.9662499,281
11.9687499,728
11.9712499,1883
11.9737499,2637
11.9762499,2682
11.9787499,1983
11.9812499,755
11.9837499,265
11.986249899999999,1135
11.9887499,2207
11.9912499,2739
11.9937499,2544
11.9962499,1600
11.9987499,470
12.0012499,422
12.003749899999999,1533
12.0062499,2463
12.0087499,2752
12.0112499,2315
12.0137499,1168
12.0162499,299
12.0187499,739
12.021249899999999,1885
12.0237499,2631
12.0262499,2676
12.0287499,1993
12.0312499,773
12.0337499,281
12.0362499,1140
12.0387499,2197
12.0412499,2724
12.0437499,2531
12.0462499,1600
12.048749899999999,499
12.0512499,478
12.0537499,1582
12.0562499,2478
12.0587499,2745
12.0612499,2300
12.0637499,1058
12.066249899999999,280
12.0687499,836
12.0712499,1972
12.0737499,2629
12.0762499,2671
12.0787499,1999
12.0812499,784
12.083749899999999,291
12.0862499,1155
12.0887499,2197
12.0912499,2707
12.0937499,2524
12.0962499,1611
12.0987499,491
12.1012499,446
12.1037499,1554
12.1062499,2439
12.1087499,2702
12.111249899999999,2297
12.1137499,1174
12.1162499,310
12.1187499,754
12.1212499,1893
12.1237499,2602
12.1262499,2642
12.128749899999999,1999
12.1312499,786
12.1337499,290
12.1362499,1163
12.1387499,2191
12.1412499,2673
12.1437499,2502
12.146249899999999,1608
12.1487499,478
12.1512499,428
12.1537499,1548
12.1562499,2415
12.1587499,2668
12.1612499,2286
12.1637499,1173
12.1662499,298
12.1687499,758
12.1712499,1907
12.173749899999999,2579
12.1762499,2608
12.1787499,1993
12.1812499,778
12.1837499,280
12.1862499,1189
12.1887499,2209
12.191249899999999,2658
12.1937499,2497
12.1962499,1609
12.1987499,446
12.2012499,399
12.2037499,1569
12.2062499,2412
12.208749899999999,2639
12.2112499,2286
12.2137499,1145
12.2162499,225
12.2187499,718
12.2212499,1912
12.2237499,2557
12.2262499,2582
12.2287499,1986
12.2312499,688
12.2337499,133
12.236249899999999,1124
12.2387499,2184
12.2412499,2618
12.2437499,2476
12.2462499,1572
12.2487499,302
12.2512499,259
12.253749899999999,1561
12.2562499,2420
12.2587499,2631
12.2612499,2297
12.2637499,1061
12.2662499,30
12.2687499,599
12.271249899999999,1936
12.2737499,2592
12.2762499,2618
12.2787499,2009
12.2812499,549
12.2837499,0
12.2862499,1106
12.2887499,2260
12.2912499,2689
12.2937499,2555
12.2962499,1561
12.298749899999999,83
12.3012499,138
12.3037499,1641
12.3062499,2566
12.3087499,2777
12.3112499,2446
12.3137499,884
12.316249899999999,0
12.3187499,505
12.3212499,2056
12.3237499,2728
12.3262499,2739
12.3287499,2046
12.3312499,112
12.333749899999999,0
12.3362499,1115
12.3387499,2423
12.3412499,2852
12.3437499,2707
12.3462499,1492
12.3487499,0
12.3512499,0
12.3537499,1662
12.3562499,2665
12.3587499,2869
12.361249899999999,2499
12.3637499,778
12.3662499,0
12.3687499,470
12.3712499,2101
12.3737499,2818
12.3762499,2831
12.378749899999999,2099
12.3812499,88
12.3837499,0
12.3862499,1098
12.3887499,2441
12.3912499,2895
12.3937499,2757
12.396249899999999,1516
12.3987499,0
12.4012499,0
12.4037499,1674
12.4062499,2681
12.4087499,2869
12.4112499,2487
12.4137499,736
12.4162499,0
12.4187499,457
12.4212499,2106
12.423749899999999,2824
12.4262499,2826
12.4287499,2064
12.4312499,17
12.4337499,0
12.4362499,944
12.4387499,2194
12.441249899999999,2631
12.4437499,2526
12.4462499,1351
12.4487499,0
12.4512499,4
12.4537499,1780
12.4562499,2860
12.458749899999999,3080
12.4612499,2679
12.4637499,884
12.4662499,0
12.4687499,497
12.4712499,2210
12.4737499,2977
12.4762499,2993
12.4787499,2228
12.4812499,165
12.4837499,0
12.486249899999999,1150
12.4887499,2549
12.4912499,3022
12.4937499,2864
12.4962499,1587
12.4987499,0
12.5012499,1
12.503749899999999,1754
12.5062499,2832
12.5087499,3059
12.5112499,2671
12.5137499,894
12.5162499,0
12.5187499,531
12.521249899999999,2271
12.5237499,3038
12.5262499,3047
12.5287499,2270
12.5312499,74
12.5337499,0
12.5362499,1324
12.5387499,2668
12.5412499,3098
12.5437499,2950
12.5462499,1680
12.548749899999999,0
12.5512499,43
12.5537499,1811
12.5562499,2897
12.5587499,3117
12.5612499,2702
12.5637499,900
12.566249899999999,0
12.5687499,518
12.5712499,2239
12.5737499,3018
12.5762499,3030
12.5787499,2247
12.5812499,201
12.583749899999999,0
12.5862499,1179
12.5887499,2608
12.5912499,3126
12.5937499,2969
12.5962499,1675
12.5987499,0
12.6012499,6
12.6037499,1757
12.6062499,2832
12.6087499,3063
12.611249899999999,2649
12.6137499,883
12.6162499,-1
12.6187499,523
12.6212499,2231
12.6237499,3008
12.6262499,3026
12.628749899999999,2249
12.6312499,228
12.6337499,-1
12.6362499,1187
12.6387499,2594
12.6412499,3072
12.6437499,2900
12.646249899999999,1627
12.6487499,0
12.6512499,29
12.6537499,1761
12.6562499,2839
12.6587499,3072
12.6612499,2660
12.6637499,908
12.6662499,-1
12.6687499,536
12.6712499,2234
12.673749899999999,3006
12.6762499,3018
12.6787499,2233
12.6812499,240
12.6837499,0
12.6862499,1176
12.6887499,2573
12.691249899999999,3067
12.6937499,2898
12.6962499,1633
12.6987499,0
12.7012499,30
12.7037499,1735
12.7062499,2813
12.708749899999999,3051
12.7112499,2637
12.7137499,866
12.7162499,0
12.7187499,497
12.7212499,2201
12.7237499,2987
12.7262499,3009
12.7287499,2233
12.7312499,201
12.7337499,0
12.736249899999999,1137
12.7387499,2547
12.7412499,3055
12.7437499,2895
12.7462499,1632
12.7487499,0
12.7512499,49
12.753749899999999,1743
12.7562499,2797
12.7587499,3026
12.7612499,2623
12.7637499,916
12.7662499,0
12.7687499,554
12.771249899999999,2273
12.7737499,3055
12.7762499,3061
12.7787499,2265
12.7812499,236
12.7837499,0
12.7862499,1123
12.7887499,2541
12.7912499,3064
12.7937499,2919
12.7962499,1654
12.798749899999999,0
12.8012499,3
12.8037499,1728
12.8062499,2826
12.8087499,3076
12.8112499,2669
12.8137499,905
12.816249899999999,0
12.8187499,491
12.8212499,2193
12.8237499,3000
12.8262499,3032
12.8287499,2259
12.8312499,244
12.833749899999999,0
12.8362499,1134
12.8387499,2545
12.8412499,3064
12.8437499,2918
12.8462499,1661
12.8487499,0
12.8512499,16
12.8537499,1740
12.8562499,2839
12.8587499,3095
12.861249899999999,2669
12.8637499,912
12.8662499,0
12.8687499,509
12.8712499,2201
12.8737499,3009
12.8762499,3051
12.878749899999999,2304
12.8812499,333
12.8837499,0
12.8862499,1213
12.8887499,2665
12.8912499,3182
12.8937499,3030
12.896249899999999,1778
12.8987499,0
12.9012499,99
12.9037499,1840
12.9062499,2922
12.9087499,3142
12.9112499,2716
12.9137499,1016
12.9162499,0
12.9187499,565
12.9212499,2231
12.923749899999999,2989
12.9262499,2989
12.9287499,2223
12.9312499,320
12.9337499,0
12.9362499,1173
12.9387499,2518
12.941249899999999,2976
12.9437499,2774
12.9462499,1554
12.9487499,-1
12.9512499,64
12.9537499,1695
12.9562499,2726
12.958749899999999,2961
12.9612499,2576
12.9637499,960
12.9662499,0
12.9687499,547
12.9712499,2159
12.9737499,2892
12.9762499,2895
12.9787499,2157
12.9812499,333
12.9837499,0
12.986249899999999,1155
12.9887499,2462
12.9912499,2929
12.9937499,2736
12.9962499,1484
12.9987499,0
13.0012499,185
13.003749899999999,1693
13.0062499,2695
13.0087499,2911
13.0112499,2516
13.0137499,961
13.0162499,0
13.0187499,515
13.021249899999999,2014
13.0237499,2692
13.0262499,2661
13.0287499,1949
13.0312499,246
13.0337499,0
13.0362499,1052
13.0387499,2284
13.0412499,2742
13.0437499,2608
13.0462499,1527
13.048749899999999,0
13.0512499,112
13.0537499,1670
13.0562499,2665
13.0587499,2908
13.0612499,2562
13.0637499,1098
13.066249899999999,0
13.0687499,607
13.0712499,2155
13.0737499,2882
13.0762499,2906
13.0787499,2223
13.0812499,530
13.083749899999999,-1
13.0862499,1050
13.0887499,2246
13.0912499,2673
13.0937499,2524
13.0962499,1471
13.0987499,0
13.1012499,83
13.1037499,1545
13.1062499,2484
13.1087499,2708
13.111249899999999,2375
13.1137499,953
13.1162499,0
13.1187499,504
13.1212499,1946
13.1237499,2644
13.1262499,2690
13.128749899999999,2068
13.1312499,478
13.1337499,0
13.1362499,1124
13.1387499,2346
13.1412499,2777
13.1437499,2623
13.146249899999999,1582
13.1487499,53
13.1512499,114
13.1537499,1604
13.1562499,2579
13.1587499,2823
13.1612499,2470
13.1637499,1044
13.1662499,0
13.1687499,565
13.1712499,2070
13.173749899999999,2815
13.1762499,2860
13.1787499,2202
13.1812499,573
13.1837499,0
13.1862499,1145
13.1887499,2428
13.191249899999999,2924
13.1937499,2781
13.1962499,1695
13.1987499,125
13.2012499,130
13.2037499,1656
13.2062499,2669
13.208749899999999,2910
13.2112499,2512
13.2137499,1042
13.2162499,0
13.2187499,480
13.2212499,1915
13.2237499,2647
13.2262499,2695
13.2287499,2036
13.2312499,433
13.2337499,0
13.236249899999999,1013
13.2387499,2249
13.2412499,2752
13.2437499,2624
13.2462499,1590
13.2487499,83
13.2512499,112
13.253749899999999,1579
13.2562499,2578
13.2587499,2845
13.2612499,2481
13.2637499,1086
13.2662499,0
13.2687499,539
13.271249899999999,2007
13.2737499,2773
13.2762499,2827
13.2787499,2152
13.2812499,580
13.2837499,0
13.2862499,1097
13.2887499,2355
13.2912499,2866
13.2937499,2721
13.2962499,1679
13.298749899999999,178
13.3012499,138
13.3037499,1601
13.3062499,2615
13.3087499,2885
13.3112499,2513
13.3137499,1135
13.316249899999999,0
13.3187499,562
13.3212499,2027
13.3237499,2794
13.3262499,2842
13.3287499,2168
13.3312499,610
13.333749899999999,0
13.3362499,1098
13.3387499,2352
13.3412499,2866
13.3437499,2724
13.3462499,1687
13.3487499,209
13.3512499,153
13.3537499,1616
13.3562499,2626
13.3587499,2889
13.361249899999999,2508
13.3637499,1127
13.3662499,0
13.3687499,570
13.3712499,2036
13.3737499,2805
13.3762499,2855
13.378749899999999,2181
13.3812499,633
13.3837499,0
13.3862499,1124
13.3887499,2394
13.3912499,2913
13.3937499,2761
13.396249899999999,1716
13.3987499,259
13.4012499,193
13.4037499,1638
13.4062499,2629
13.4087499,2893
13.4112499,2518
13.4137499,1155
13.4162499,20
13.4187499,636
13.4212499,2133
13.423749899999999,2898
13.4262499,2918
13.4287499,2215
13.4312499,652
13.4337499,0
13.4362499,1145
13.4387499,2417
13.441249899999999,2924
13.4437499,2761
13.4462499,1704
13.4487499,223
13.4512499,164
13.4537499,1646
13.4562499,2668
13.458749899999999,2935
13.4612499,2476
13.4637499,1021
13.4662499,0
13.4687499,588
13.4712499,2073
13.4737499,2850
13.4762499,2892
13.4787499,2201
13.4812499,628
13.4837499,0
13.486249899999999,1131
13.4887499,2407
13.4912499,2924
13.4937499,2765
13.4962499,1704
13.4987499,204
13.5012499,149
13.503749899999999,1621
13.5062499,2639
13.5087499,2903
13.5112499,2504
13.5137499,1098
13.5162499,0
13.5187499,567
13.521249899999999,2056
13.5237499,2835
13.5262499,2876
13.5287499,2172
13.5312499,581
13.5337499,0
13.5362499,1098
13.5387499,2378
13.5412499,2906
13.5437499,2752
13.5462499,1687
13.548749899999999,183
13.5512499,154
13.5537499,1666
13.5562499,2713
13.5587499,2984
13.5612499,2582
13.5637499,1197
13.566249899999999,56
13.5687499,652
13.5712499,2152
13.5737499,2919
13.5762499,2939
13.5787499,2218
13.5812499,646
13.583749899999999,0
13.5862499,1208
13.5887499,2523
13.5912499,3016
13.5937499,2800
13.5962499,1711
13.5987499,243
13.6012499,223
13.6037499,1778
13.6062499,2782
13.6087499,2968
13.611249899999999,2507
13.6137499,1074
13.6162499,0
13.6187499,581
13.6212499,2109
13.6237499,2887
13.6262499,2892
13.628749899999999,2152
13.6312499,514
13.6337499,0
13.6362499,1066
13.6387499,2349
13.6412499,2869
13.6437499,2705
13.646249899999999,1619
13.6487499,87
13.6512499,114
13.6537499,1614
13.6562499,2678
13.6587499,2972
13.6612499,2573
13.6637499,1115
13.6662499,0
13.6687499,539
13.6712499,2064
13.673749899999999,2902
13.6762499,2987
13.6787499,2259
13.6812499,586
13.6837499,0
13.6862499,1087
13.6887499,2428
13.691249899999999,3000
13.6937499,2839
13.6962499,1716
13.6987499,135
13.7012499,116
13.7037499,1630
13.7062499,2723
13.708749899999999,3026
13.7112499,2600
13.7137499,1123
13.7162499,0
13.7187499,525
13.7212499,2057
13.7237499,2898
13.7262499,2953
13.7287499,2212
13.7312499,557
13.7337499,0
13.736249899999999,1058
13.7387499,2392
13.7412499,2966
13.7437499,2798
13.7462499,1677
13.7487499,111
13.7512499,103
13.753749899999999,1585
13.7562499,2661
13.7587499,2963
13.7612499,2553
13.7637499,1118
13.7662499,0
13.7687499,549
13.771249899999999,2070
13.7737499,2895
13.7762499,2943
13.7787499,2205
13.7812499,563
13.7837499,0
13.7862499,1063
13.7887499,2386
13.7912499,2956
13.7937499,2792
13.7962499,1685
13.798749899999999,130
13.8012499,103
13.8037499,1579
13.8062499,2665
13.8087499,2974
13.8112499,2552
13.8137499,1087
13.816249899999999,0
13.8187499,505
13.8212499,2007
13.8237499,2839
13.8262499,2889
13.8287499,2146
13.8312499,478
13.833749899999999,0
13.8362499,1023
13.8387499,2328
13.8412499,2890
13.8437499,2731
13.8462499,1625
13.8487499,77
13.8512499,107
13.8537499,1608
13.8562499,2697
13.8587499,2997
13.861249899999999,2570
13.8637499,1113
13.8662499,0
13.8687499,539
13.8712499,2072
13.8737499,2918
13.8762499,2966
13.878749899999999,2205
13.8812499,552
13.8837499,0
13.8862499,1048
13.8887499,2391
13.8912499,2985
13.8937499,2805
13.896249899999999,1658
13.8987499,82
13.9012499,87
13.9037499,1551
13.9062499,2686
13.9087499,3030
13.9112499,2587
13.9137499,1098
13.9162499,0
13.9187499,501
13.9212499,2046
13.923749899999999,3229
13.9262499,3242
13.9287499,3240
13.9312499,3238
13.9337499,3235
13.9362499,3237
13.9387499,3235
13.941249899999999,3227
13.9437499,3082
13.9462499,2056
13.9487499,1140
13.9512499,1103
13.9537499,1819
13.9562499,2368
13.958749899999999,2500
13.9612499,2089
13.9637499,1116
13.9662499,628
13.9687499,1176
13.9712499,1991
13.9737499,2502
13.9762499,2471
13.9787499,1814
13.9812499,855
13.9837499,630
13.986249899999999,1413
13.9887499,2149
13.9912499,2512
13.9937499,2318
13.9962499,1426
13.9987499,654
14.0012499,799
14.003749899999999,1654
14.0062499,2299
14.0087499,2476
14.0112499,2070
14.0137499,1068
14.0162499,546
14.0187499,1074
14.021249899999999,1880
14.0237499,2407
14.0262499,2407
14.0287499,1766
14.0312499,808
14.0337499,580
14.0362499,1356
14.0387499,2093
14.0412499,2466
14.0437499,2281
14.0462499,1395
14.048749899999999,623
14.0512499,768
14.0537499,1619
14.0562499,2254
14.0587499,2426
14.0612499,2038
14.0637499,1068
14.066249899999999,552
14.0687499,1068
14.0712499,1875
14.0737499,2399
14.0762499,2394
14.0787499,1769
14.0812499,813
14.083749899999999,567
14.0862499,1321
14.0887499,2064
14.0912499,2437
14.0937499,2252
14.0962499,1401
14.0987499,644
14.1012499,755
14.1037499,1601
14.1062499,2225
14.1087499,2379
14.111249899999999,1964
14.1137499,1040
14.1162499,572
14.1187499,1086
14.1212499,1896
14.1237499,2413
14.1262499,2394
14.128749899999999,1762
14.1312499,815
14.1337499,565
14.1362499,1310
14.1387499,2048
14.1412499,2425
14.1437499,2249
14.146249899999999,1408
14.1487499,641
14.1512499,749
14.1537499,1590
14.1562499,2238
14.1587499,2429
14.1612499,2051
14.1637499,1086
14.1662499,552
14.1687499,1037
14.1712499,1833
14.173749899999999,2360
14.1762499,2365
14.1787499,1766
14.1812499,839
14.1837499,592
14.1862499,1330
14.1887499,2054
14.191249899999999,2426
14.1937499,2254
14.1962499,1424
14.1987499,667
14.2012499,766
14.2037499,1588
14.2062499,2223
14.208749899999999,2417
14.2112499,2051
14.2137499,1110
14.2162499,609
14.2187499,1092
14.2212499,1869
14.2237499,2375
14.2262499,2363
14.2287499,1757
14.2312499,845
14.2337499,599
14.236249899999999,1308
14.2387499,2022
14.2412499,2392
14.2437499,2226
14.2462499,1419
14.2487499,681
14.2512499,778
14.253749899999999,1582
14.2562499,2210
14.2587499,2396
14.2612499,2027
14.2637499,1105
14.2662499,599
14.2687499,1058
14.271249899999999,1815
14.2737499,2320
14.2762499,2318
14.2787499,1733
14.2812499,855
14.2837499,626
14.2862499,1321
14.2887499,2010
14.2912499,2362
14.2937499,2188
14.2962499,1398
14.298749899999999,697
14.3012499,799
14.3037499,1564
14.3062499,2160
14.3087499,2334
14.3112499,1973
14.3137499,1102
14.316249899999999,626
14.3187499,1060
14.3212499,1775
14.3237499,2259
14.3262499,2259
14.3287499,1701
14.3312499,876
14.333749899999999,663
14.3362499,1322
14.3387499,1990
14.3412499,2338
14.3437499,2172
14.3462499,1409
14.3487499,733
14.3512499,829
14.3537499,1571
14.3562499,2164
14.3587499,2334
14.361249899999999,1975
14.3637499,1111
14.3662499,641
14.3687499,1076
14.3712499,1798
14.3737499,2291
14.3762499,2288
14.378749899999999,1717
14.3812499,878
14.3837499,659
14.3862499,1322
14.3887499,1996
14.3912499,2346
14.3937499,2172
14.396249899999999,1400
14.3987499,691
14.4012499,870
14.4037499,1617
14.4062499,2162
14.4087499,2346
14.4112499,1981
14.4137499,1123
14.4162499,642
14.4187499,1052
14.4212499,1780
14.423749899999999,2284
14.4262499,2288
14.4287499,1725
14.4312499,889
14.4337499,659
14.4362499,1305
14.4387499,1986
14.441249899999999,2346
14.4437499,2176
14.4462499,1422
14.4487499,729
14.4512499,800
14.4537499,1542
14.4562499,2151
14.458749899999999,2339
14.4612499,1980
14.4637499,1115
14.4662499,621
14.4687499,1023
14.4712499,1746
14.4737499,2254
14.4762499,2263
14.4787499,1711
14.4812499,883
14.4837499,655
14.486249899999999,1258
14.4887499,1904
14.4912499,2265
14.4937499,2112
14.4962499,1382
14.4987499,734
14.5012499,828
14.503749899999999,1550
14.5062499,2147
14.5087499,2333
14.5112499,1973
14.5137499,1132
14.5162499,668
14.5187499,1068
14.521249899999999,1769
14.5237499,2265
14.5262499,2276
14.5287499,1720
14.5312499,916
14.5337499,697
14.5362499,1311
14.5387499,1962
14.5412499,2313
14.5437499,2144
14.5462499,1400
14.548749899999999,755
14.5512499,860
14.5537499,1564
14.5562499,2155
14.5587499,2342
14.5612499,1983
14.5637499,1147
14.566249899999999,694
14.5687499,1100
14.5712499,1788
14.5737499,2291
14.5762499,2304
14.5787499,1737
14.5812499,932
14.583749899999999,726
14.5862499,1347
14.5887499,2009
14.5912499,2378
14.5937499,2207
14.5962499,1442
14.5987499,775
14.6012499,868
14.6037499,1579
14.6062499,2189
14.6087499,2394
14.611249899999999,2022
14.6137499,1153
14.6162499,678
14.6187499,1086
14.6212499,1803
14.6237499,2330
14.6262499,2344
14.628749899999999,1748
14.6312499,905
14.6337499,679
14.6362499,1313
14.6387499,2009
14.6412499,2408
14.6437499,2233
14.646249899999999,1434
14.6487499,733
14.6512499,816
14.6537499,1543
14.6562499,2189
14.6587499,2413
14.6612499,2028
14.6637499,1131
14.6662499,628
14.6687499,1032
14.6712499,1770
14.673749899999999,2330
14.6762499,2359
14.6787499,1748
14.6812499,883
14.6837499,647
14.6862499,1284
14.6887499,1999
14.691249899999999,2413
14.6937499,2236
14.6962499,1422
14.6987499,710
14.7012499,792
14.7037499,1527
14.7062499,2189
14.708749899999999,2423
14.7112499,2031
14.7137499,1124
14.7162499,621
14.7187499,1032
14.7212499,1777
14.7237499,2352
14.7262499,2388
14.7287499,1767
14.7312499,895
14.7337499,657
14.736249899999999,1292
14.7387499,2017
14.7412499,2447
14.7437499,2273
14.7462499,1430
14.7487499,708
14.7512499,812
14.753749899999999,1566
14.7562499,2241
14.7587499,2510
14.7612499,2101
14.7637499,1148
14.7662499,625
14.7687499,1044
14.771249899999999,1791
14.7737499,2379
14.7762499,2417
14.7787499,1766
14.7812499,874
14.7837499,641
14.7862499,1297
14.7887499,2031
14.7912499,2473
14.7937499,2313
14.7962499,1351
14.798749899999999,77
14.8012499,130
14.8037499,1569
14.8062499,2747
14.8087499,3097
14.8112499,2573
14.8137499,1115
14.816249899999999,0
14.8187499,412
14.8212499,1878
14.8237499,2835
14.8262499,2935
14.8287499,2149
14.8312499,563
14.833749899999999,0
14.8362499,929
14.8387499,2304
14.8412499,2987
14.8437499,2800
14.8462499,1670
14.8487499,146
14.8512499,70
14.8537499,1461
14.8562499,2642
14.8587499,3029
14.861249899999999,2476
14.8637499,981
14.8662499,0
14.8687499,546
14.8712499,1930
14.8737499,2884
14.8762499,2972
14.878749899999999,2181
14.8812499,576
14.8837499,0
14.8862499,944
14.8887499,2328
14.8912499,3006
14.8937499,2826
14.896249899999999,1690
14.8987499,435
14.9012499,581
14.9037499,1503
14.9062499,2286
14.9087499,2581
14.9112499,2175
14.9137499,1197
14.9162499,659
14.9187499,1079
14.9212499,1827
14.923749899999999,2405
14.9262499,2441
14.9287499,1795
14.9312499,887
14.9337499,655
14.9362499,1335
14.9387499,2073
14.941249899999999,2512
14.9437499,2325
14.9462499,1453
14.9487499,712
14.9512499,823
14.9537499,1595
14.9562499,2283
14.958749899999999,2534
14.9612499,2117
14.9637499,1148
14.9662499,631
14.9687499,1076
14.9712499,1840
14.9737499,2428
14.9762499,2463
14.9787499,1811
14.9812499,905
14.9837499,673
14.986249899999999,1340
14.9887499,2067
14.9912499,2497
14.9937499,2320
14.9962499,1459
14.9987499,729
15.0012499,837
15.003749899999999,1595
15.0062499,2271
15.0087499,2515
15.0112499,2109
15.0137499,1155
15.0162499,644
15.0187499,1086
15.021249899999999,1833
15.0237499,2425
15.0262499,2466
15.0287499,1761
15.0312499,834
15.0337499,620
15.0362499,1326
15.0387499,2067
15.0412499,2512
15.0437499,2334
15.0462499,1461
15.048749899999999,736
15.0512499,836
15.0537499,1595
15.0562499,2273
15.0587499,2516
15.0612499,2115
15.0637499,1181
15.066249899999999,673
15.0687499,1090
15.0712499,1832
15.0737499,2413
15.0762499,2447
15.0787499,1803
15.0812499,912
15.083749899999999,679
15.0862499,1330
15.0887499,2060
15.0912499,2512
15.0937499,2339
15.0962499,1451
15.0987499,750
15.1012499,913
15.1037499,1640
15.1062499,2262
15.1087499,2491
15.111249899999999,2109
15.1137499,757
15.1162499,0
15.1187499,499
15.1212499,2136
15.1237499,3087
15.1262499,3117
15.128749899999999,2259
15.1312499,476
15.1337499,0
15.1362499,968
15.1387499,2412
15.1412499,3106
15.1437499,2927
15.146249899999999,1711
15.1487499,22
15.1512499,35
15.1537499,1542
15.1562499,2761
15.1587499,3135
15.1612499,2644
15.1637499,1058
15.1662499,-1
15.1687499,423
15.1712499,2017
15.173749899999999,2984
15.1762499,3069
15.1787499,2236
15.1812499,447
15.1837499,0
15.1862499,989
15.1887499,2444
15.191249899999999,3119
15.1937499,2919
15.1962499,1685
15.1987499,0
15.2012499,9
15.2037499,1550
15.2062499,2776
15.208749899999999,3150
15.2112499,2663
15.2137499,1045
15.2162499,0
15.2187499,412
15.2212499,2020
15.2237499,2980
15.2262499,3058
15.2287499,2222
15.2312499,410
15.2337499,0
15.236249899999999,960
15.2387499,2408
15.2412499,3088
15.2437499,2911
15.2462499,1688
15.2487499,0
15.2512499,3
15.253749899999999,1566
15.2562499,2787
15.2587499,3155
15.2612499,2665
15.2637499,1052
15.2662499,0
15.2687499,422
15.271249899999999,2033
15.2737499,2980
15.2762499,3056
15.2787499,2236
15.2812499,431
15.2837499,0
15.2862499,1028
15.2887499,2499
15.2912499,3158
15.2937499,2972
15.2962499,1724
15.298749899999999,0
15.3012499,54
15.3037499,1677
15.3062499,2869
15.3087499,3137
15.3112499,2528
15.3137499,1301
15.316249899999999,644
15.3187499,1090
15.3212499,1772
15.3237499,2283
15.3262499,2252
15.3287499,1641
15.3312499,849
15.333749899999999,744
15.3362499,1487
15.3387499,2122
15.3412499,2442
15.3437499,2275
15.3462499,1467
15.3487499,758
15.3512499,913
15.3537499,1682
15.3562499,2251
15.3587499,2434
15.361249899999999,2106
15.3637499,1160
15.3662499,657
15.3687499,1173
15.3712499,1902
15.3737499,2373
15.3762499,2394
15.378749899999999,1827
15.3812499,912
15.3837499,694
15.3862499,1430
15.3887499,2081
15.3912499,2413
15.3937499,2275
15.396249899999999,1464
15.3987499,739
15.4012499,889
15.4037499,1672
15.4062499,2244
15.4087499,2426
15.4112499,2099
15.4137499,1160
15.4162499,657
15.4187499,1163
15.4212499,1890
15.4237499,2362
15.4262499,2384
15.4287499,1827
15.4312499,928
15.4337499,712
15.4362499,1432
15.4387499,2078
15.441249899999999,2421
15.4437499,2284
15.4462499,1477
15.4487499,758
15.4512499,900
15.4537499,1661
15.4562499,2230
15.458749899999999,2417
15.4612499,2085
15.4637499,1161
15.4662499,678
15.4687499,1169
15.4712499,1878
15.4737499,2344
15.4762499,2368
15.4787499,1801
15.4812499,931
15.4837499,739
15.4862499,1448
15.4887499,2065
15.4912499,2392
15.4937499,2259
15.4962499,1463
15.4987499,783
15.5012499,949
15.503749899999999,1677
15.5062499,2210
15.5087499,2384
15.5112499,2052
15.5137499,1187
15.5162499,736
15.5187499,1213
15.521249899999999,1898
15.5237499,2346
15.5262499,2359
15.5287499,1811
15.5312499,952
15.5337499,747
15.5362499,1424
15.5387499,2059
15.5412499,2400
15.5437499,2262
15.5462499,1500
15.5487499,820
15.5512499,932
15.5537499,1659
15.5562499,2233
15.5587499,2425
15.5612499,2093
15.5637499,1210
15.566249899999999,726
15.5687499,1160
15.5712499,1819
15.5737499,2299
15.5762499,2338
15.5787499,1811
15.5812499,968
15.583749899999999,752
15.5862499,1422
15.5887499,2077
15.5912499,2436
15.5937499,2296
15.5962499,1646
15.5987499,1171
15.6012499,1226
15.6037499,1588
15.6062499,2035
15.6087499,2226
15.6112499,1943
15.6137499,1424
15.6162499,1150
15.6187499,1292
15.6212499,1685
15.6237499,2106
15.6262499,2160
15.628749899999999,1762
15.6312499,1289
15.6337499,1153
15.6362499,1401
15.6387499,1830
15.6412499,2157
15.6437499,2051
15.646249899999999,1583
15.6487499,1194
15.6512499,1208
15.6537499,1529
15.6562499,1973
15.6587499,2173
15.6612499,1911
15.6637499,1426
15.6662499,1156
15.6687499,1287
15.6712499,1672
15.6737499,2083
15.6762499,2135
15.6787499,1749
15.6812499,1297
15.6837499,1163
15.6862499,1405
15.6887499,1830
15.691249899999999,2155
15.6937499,2054
15.6962499,1608
15.6987499,1232
15.7012499,1223
15.7037499,1540
15.7062499,1977
15.708749899999999,2176
15.7112499,1923
15.7137499,1459
15.7162499,1195
15.7187499,1316
15.7212499,1687
15.7237499,2078
15.7262499,2123
15.7287499,1754
15.7312499,1321
15.7337499,1185
15.7362499,1414
15.7387499,1824
15.7412499,2130
15.7437499,2028
15.7462499,1600
15.7487499,1239
15.7512499,1234
15.753749899999999,1538
15.7562499,1946
15.7587499,2130
15.7612499,1891
15.7637499,1450
15.7662499,1202
15.7687499,1318
15.771249899999999,1670
15.7737499,2039
15.7762499,2088
15.7787499,1746
15.7812499,1345
15.7837499,1227
15.7862499,1477
15.7887499,1859
15.7912499,2118
15.7937499,2012
15.7962499,1608
15.7987499,1271
15.8012499,1266
15.8037499,1556
15.8062499,1935
15.8087499,2101
15.8112499,1875
15.8137499,1461
15.816249899999999,1229
15.8187499,1342
15.8212499,1670
15.8237499,2015
15.8262499,2057
15.8287499,1735
15.8312499,1348
15.833749899999999,1232
15.8362499,1445
15.8387499,1803
15.8412499,2086
15.8437499,2007
15.8462499,1621
15.8487499,1289
15.8512499,1281
15.8537499,1554
15.8562499,1911
15.8587499,2065
15.8612499,1849
15.8637499,1448
15.8662499,1231
15.8687499,1348
15.8712499,1666
15.8737499,1990
15.8762499,2025
15.878749899999999,1709
15.8812499,1334
15.8837499,1227
15.8862499,1435
15.8887499,1782
15.8912499,2036
15.8937499,1941
15.896249899999999,1564
15.8987499,1248
15.9012499,1255
15.9037499,1537
15.9062499,1898
15.9087499,2054
15.9112499,1835
15.9137499,1427
15.9162499,1198
15.9187499,1318
15.9212499,1648
15.9237499,1988
15.9262499,2027
15.9287499,1701
15.9312499,1316
15.9337499,1197
15.9362499,1411
15.9387499,1780
15.941249899999999,2051
15.9437499,1959
15.9462499,1567
15.9487499,1234
15.9512499,1229
15.9537499,1513
15.9562499,1891
15.958749899999999,2062
15.9612499,1836
15.9637499,1409
15.9662499,1163
15.9687499,1281
15.9712499,1637
15.9737499,2012
15.9762499,2067
15.9787499,1717
15.9812499,1285
15.9837499,1152
15.9862499,1388
15.9887499,1809
15.9912499,2133
15.9937499,2033
15.9962499,1575
15.9987499,1182
16.0012499,1173
16.003749900000003,1511
16.0062499,1977
16.0087499,2186
16.011249900000003,1911
16.0137499,1388
16.016249900000002,1082
16.018749900000003,1213
16.0212499,1641
16.023749900000002,2099
16.0262499,2162
16.0287499,1733
16.031249900000002,1224
16.0337499,1053
16.0362499,1311
16.038749900000003,1799
16.0412499,2175
16.0437499,2062
16.046249900000003,1558
16.0487499,1119
16.051249900000002,1094
16.053749900000003,1456
16.0562499,1967
16.058749900000002,2199
16.0612499,1911
16.0637499,1377
16.066249900000003,1058
16.0687499,1179
16.0712499,1619
16.073749900000003,2101
16.0762499,2172
16.078749900000002,1741
16.081249900000003,1229
16.0837499,1045
16.086249900000002,1297
16.0887499,1796
16.0912499,2186
16.093749900000002,2075
16.0962499,1569
16.0987499,1131
16.101249900000003,1095
16.1037499,1456
16.1062499,1975
16.108749900000003,2220
16.1112499,1909
16.113749900000002,1342
16.116249900000003,1015
16.1187499,1147
16.121249900000002,1609
16.1237499,2114
16.1262499,2199
16.128749900000003,1769
16.1312499,1247
16.1337499,1053
16.136249900000003,1303
16.1387499,1811
16.141249900000002,2213
16.143749900000003,2104
16.1462499,1587
16.148749900000002,1135
16.1512499,1097
16.1537499,1463
16.156249900000002,1993
16.1587499,2241
16.1612499,1940
16.163749900000003,1379
16.1662499,1040
16.1687499,1161
16.171249900000003,1622
16.1737499,2133
16.176249900000002,2215
16.178749900000003,1764
16.1812499,1213
16.183749900000002,1024
16.1862499,1298
16.1887499,1824
16.191249900000003,2233
16.1937499,2110
16.1962499,1559
16.198749900000003,1087
16.2012499,1071
16.203749900000002,1464
16.206249900000003,2014
16.2087499,2275
16.211249900000002,1964
16.2137499,1372
16.2162499,1028
16.218749900000002,1171
16.2212499,1632
16.2237499,2120
16.226249900000003,2207
16.2287499,1704
16.2312499,982
16.233749900000003,800
16.2362499,1350
16.238749900000002,2001
16.241249900000003,2417
16.2437499,2233
16.246249900000002,1445
16.2487499,841
16.2512499,934
16.253749900000003,1550
16.2562499,2155
16.2587499,2400
16.261249900000003,2056
16.2637499,1237
16.266249900000002,787
16.268749900000003,1135
16.2712499,1774
16.273749900000002,2310
16.2762499,2373
16.2787499,1786
16.281249900000002,518
16.2837499,0
16.2862499,1011
16.288749900000003,2336
16.2912499,2979
16.2937499,2816
16.296249900000003,1775
16.2987499,357
16.301249900000002,154
16.303749900000003,1459
16.3062499,2568
16.308749900000002,2947
16.3112499,2533
16.3137499,1227
16.316249900000003,90
16.3187499,485
16.3212499,1885
16.323749900000003,2782
16.3262499,2893
16.328749900000002,2189
16.331249900000003,697
16.3337499,0
16.336249900000002,965
16.3387499,2305
16.3412499,2966
16.343749900000002,2806
16.3462499,1770
16.3487499,351
16.351249900000003,141
16.3537499,1445
16.3562499,2553
16.358749900000003,2943
16.3612499,2545
16.363749900000002,1248
16.366249900000003,104
16.3687499,493
16.371249900000002,1886
16.3737499,2781
16.3762499,2890
16.378749900000003,2194
16.3812499,746
16.3837499,70
16.386249900000003,1026
16.3887499,2299
16.391249900000002,2919
16.393749900000003,2760
16.3962499,1745
16.398749900000002,344
16.4012499,159
16.4037499,1480
16.406249900000002,2574
16.4087499,2945
16.4112499,2529
16.413749900000003,1200
16.4162499,32
16.4187499,467
16.421249900000003,1919
16.4237499,2826
16.426249900000002,2926
16.428749900000003,2212
16.4312499,705
16.433749900000002,0
16.4362499,950
16.4387499,2278
16.441249900000003,2935
16.4437499,2789
16.4462499,1757
16.448749900000003,335
16.4512499,145
16.453749900000002,1448
16.456249900000003,2552
16.4587499,2934
16.461249900000002,2529
16.4637499,1243
16.4662499,117
16.468749900000002,505
16.4712499,1880
16.4737499,2768
16.476249900000003,2877
16.4787499,2181
16.4812499,741
16.483749900000003,30
16.4862499,999
16.488749900000002,2305
16.491249900000003,2939
16.4937499,2774
16.496249900000002,1732
16.4987499,294
16.5012499,107
16.503749900000003,1448
16.5062499,2579
16.5087499,2961
16.511249900000003,2544
16.5137499,1216
16.516249900000002,49
16.518749900000003,459
16.5212499,1891
16.523749900000002,2805
16.5262499,2916
16.5287499,2204
16.531249900000002,717
16.5337499,0
16.5362499,958
16.538749900000003,2286
16.5412499,2947
16.5437499,2797
16.546249900000003,1762
16.5487499,320
16.551249900000002,106
16.553749900000003,1434
16.5562499,2570
16.558749900000002,2966
16.5612499,2560
16.5637499,1242
16.566249900000003,70
16.5687499,464
16.5712499,1893
16.573749900000003,2808
16.5762499,2921
16.578749900000002,2215
16.581249900000003,734
16.5837499,0
16.586249900000002,937
16.5887499,2259
16.5912499,2929
16.593749900000002,2797
16.5962499,1778
16.5987499,352
16.601249900000003,128
16.6037499,1437
16.6062499,2563
16.608749900000003,2950
16.6112499,2537
16.613749900000002,1232
16.616249900000003,78
16.6187499,465
16.621249900000002,1877
16.6237499,2795
16.6262499,2913
16.628749900000003,2217
16.6312499,755
16.6337499,19
16.636249900000003,945
16.6387499,2244
16.641249900000002,2906
16.643749900000003,2766
16.6462499,1759
16.648749900000002,364
16.6512499,153
16.6537499,1405
16.656249900000002,2504
16.6587499,2903
16.6612499,2512
16.663749900000003,1240
16.6662499,111
16.6687499,483
16.671249900000003,1870
16.6737499,2779
16.676249900000002,2897
16.678749900000003,2202
16.6812499,763
16.683749900000002,41
16.6862499,949
16.6887499,2236
16.691249900000003,2900
16.6937499,2763
16.6962499,1764
16.698749900000003,307
16.7012499,219
16.703749900000002,1529
16.706249900000003,2584
16.7087499,2918
16.711249900000002,2516
16.7137499,1243
16.7162499,111
16.718749900000002,470
16.7212499,1835
16.7237499,2742
16.726249900000003,2871
16.7287499,2191
16.7312499,770
16.733749900000003,51
16.7362499,947
16.738749900000002,2213
16.741249900000003,2871
16.7437499,2739
16.746249900000002,1754
16.7487499,385
16.7512499,167
16.753749900000003,1419
16.7562499,2512
16.7587499,2898
16.761249900000003,2500
16.7637499,1245
16.766249900000002,130
16.768749900000003,491
16.7712499,1848
16.773749900000002,2744
16.7762499,2868
16.7787499,2188
16.781249900000002,770
16.7837499,48
16.7862499,939
16.788749900000003,2204
16.7912499,2861
16.7937499,2731
16.796249900000003,1753
16.7987499,386
16.801249900000002,169
16.803749900000003,1419
16.8062499,2508
16.808749900000002,2895
16.8112499,2504
16.8137499,1255
16.816249900000003,135
16.8187499,481
16.8212499,1830
16.823749900000003,2724
16.8262499,2848
16.828749900000002,2178
16.831249900000003,771
16.8337499,56
16.836249900000002,942
16.8387499,2199
16.8412499,2850
16.843749900000002,2724
16.8462499,1751
16.8487499,391
16.851249900000003,175
16.8537499,1421
16.8562499,2504
16.858749900000003,2885
16.8612499,2494
16.863749900000002,1247
16.866249900000003,132
16.8687499,485
16.871249900000002,1828
16.8737499,2713
16.8762499,2834
16.878749900000003,2167
16.8812499,765
16.8837499,56
16.886249900000003,947
16.8887499,2202
16.891249900000002,2850
16.893749900000003,2718
16.8962499,1743
16.898749900000002,378
16.9012499,162
16.9037499,1408
16.906249900000002,2497
16.9087499,2885
16.9112499,2502
16.913749900000003,1255
16.9162499,135
16.9187499,488
16.921249900000003,1835
16.9237499,2736
16.926249900000002,2885
16.928749900000003,2217
16.9312499,797
16.933749900000002,61
16.9362499,934
16.9387499,2191
16.941249900000003,2847
16.9437499,2721
16.9462499,1746
16.948749900000003,385
16.9512499,164
16.953749900000002,1406
16.956249900000003,2495
16.9587499,2885
16.961249900000002,2495
16.9637499,1247
16.9662499,132
16.968749900000002,483
16.9712499,1835
16.9737499,2731
16.976249900000003,2852
16.9787499,2178
16.9812499,770
16.983749900000003,49
16.9862499,932
16.988749900000002,2191
16.991249900000003,2842
16.9937499,2711
16.996249900000002,1746
16.9987499,398
17.0012499,182
17.003749900000003,1419
17.0062499,2502
17.0087499,2887
17.011249900000003,2491
17.0137499,1245
17.016249900000002,133
17.018749900000003,476
17.0212499,1812
17.023749900000002,2702
17.0262499,2827
17.0287499,2155
17.031249900000002,768
17.0337499,67
17.0362499,721
17.038749900000003,1698
17.0412499,2418
17.0437499,2394
17.046249900000003,1791
17.0487499,1205
17.051249900000002,1058
17.053749900000003,1419
17.0562499,2043
17.058749900000002,2360
17.0612499,2031
17.0637499,1408
17.066249900000003,999
17.0687499,1092
17.0712499,1617
17.073749900000003,2226
17.0762499,2344
17.078749900000002,1848
17.081249900000003,1250
17.0837499,994
17.086249900000002,1256
17.088749900000003,1870
17.0912499,2368
17.093749900000002,2247
17.0962499,1641
17.0987499,1100
17.101249900000003,1016
17.1037499,1435
17.1062499,2096
17.108749900000003,2418
17.1112499,2068
17.113749900000002,1424
17.116249900000003,1005
17.1187499,1105
17.121249900000002,1648
17.1237499,2267
17.1262499,2370
17.128749900000003,1844
17.1312499,1226
17.1337499,965
17.136249900000003,1227
17.1387499,1843
17.141249900000002,2341
17.143749900000003,2217
17.1462499,1614
17.148749900000002,1079
17.151249900000003,1015
17.1537499,1459
17.156249900000002,2109
17.1587499,2383
17.1612499,2051
17.163749900000003,1426
17.1662499,1010
17.1687499,1097
17.171249900000003,1614
17.1737499,2213
17.176249900000002,2323
17.178749900000003,1828
17.1812499,1234
17.183749900000002,981
17.1862499,1243
17.1887499,1844
17.191249900000003,2325
17.1937499,2202
17.1962499,1579
17.198749900000003,1052
17.2012499,981
17.203749900000002,1397
17.206249900000003,2039
17.2087499,2360
17.211249900000002,2044
17.213749900000003,1445
17.2162499,1040
17.218749900000002,1121
17.2212499,1617
17.2237499,2189
17.226249900000003,2291
17.2287499,1812
17.2312499,1240
17.233749900000003,994
17.2362499,1239
17.238749900000002,1811
17.241249900000003,2271
17.2437499,2165
17.246249900000002,1611
17.2487499,1115
17.2512499,1037
17.253749900000003,1416
17.2562499,2007
17.2587499,2300
17.261249900000003,1998
17.2637499,1424
17.266249900000002,1047
17.268749900000003,1132
17.2712499,1611
17.273749900000002,2157
17.276249900000003,2254
17.2787499,1804
17.281249900000002,1260
17.2837499,1024
17.2862499,1253
17.288749900000003,1795
17.2912499,2234
17.2937499,2131
17.296249900000003,1609
17.2987499,1137
17.301249900000002,1061
17.303749900000003,1422
17.3062499,1990
17.308749900000002,2267
17.3112499,1980
17.3137499,1437
17.316249900000003,1077
17.3187499,1156
17.3212499,1604
17.323749900000003,2122
17.3262499,2217
17.328749900000002,1791
17.331249900000003,1277
17.3337499,1058
17.336249900000002,1282
17.338749900000003,1796
17.3412499,2210
17.343749900000002,2112
17.3462499,1612
17.3487499,1165
17.351249900000003,1090
17.3537499,1430
17.3562499,1962
17.358749900000003,2228
17.3612499,1957
17.363749900000002,1443
17.366249900000003,1103
17.3687499,1179
17.371249900000002,1611
17.3737499,2102
17.3762499,2194
17.378749900000003,1788
17.3812499,1295
17.3837499,1087
