# Time (seconds),Voltage
0.0012499,2806
0.0037499,2268
0.0062499,883
0.0087499,37
0.0112499,799
0.0137499,2196
0.016249899999999998,2797
0.0187499,2708
0.021249900000000002,1862
0.023749899999999997,465
0.0262499,93
0.028749900000000002,1313
0.031249899999999997,2479
0.0337499,2829
0.0362499,2526
0.0387499,1376
0.0412499,183
0.0437499,378
0.0462499,1812
0.0487499,2690
0.0512499,2806
0.053749899999999996,2257
0.0562499,871
0.0587499,40
0.061249899999999996,816
0.0637499,2207
0.0662499,2805
0.0687499,2713
0.0712499,1861
0.0737499,462
0.0762499,103
0.0787499,1332
0.0812499,2494
0.0837499,2839
0.0862499,2531
0.0887499,1371
0.0912499,178
0.0937499,364
0.0962499,1740
0.0987499,2611
0.1012499,2748
0.1037499,2225
0.1062499,862
0.1087499,53
0.1112499,841
0.1137499,2225
0.1162499,2810
0.1187499,2711
0.1212499,1851
0.1237499,456
0.1262499,101
0.1287499,1342
0.1312499,2494
0.1337499,2832
0.1362499,2520
0.1387499,1355
0.1412499,167
0.1437499,385
0.1462499,1819
0.1487499,2692
0.1512499,2805
0.1537499,2244
0.1562499,862
0.1587499,48
0.1612499,839
0.1637499,2220
0.1662499,2806
0.1687499,2708
0.1712499,1846
0.1737499,459
0.17624990000000001,119
0.1787499,1364
0.1812499,2507
0.1837499,2835
0.1862499,2515
0.1887499,1340
0.1912499,162
0.1937499,398
0.1962499,1840
0.1987499,2703
0.2012499,2806
0.2037499,2236
0.2062499,844
0.20874990000000002,38
0.2112499,841
0.2137499,2220
0.2162499,2802
0.2187499,2699
0.2212499,1830
0.2237499,443
0.2262499,119
0.2287499,1371
0.2312499,2512
0.2337499,2839
0.2362499,2513
0.23874990000000001,1335
0.2412499,164
0.2437499,407
0.2462499,1844
0.2487499,2702
0.2512499,2805
0.25374990000000003,2236
0.25624990000000003,842
0.25874990000000003,41
0.26124990000000003,857
0.26374990000000004,2228
0.26624990000000004,2800
0.26874990000000004,2694
0.27124990000000004,1817
0.27374990000000005,433
0.27624990000000005,119
0.27874990000000005,1379
0.28124990000000005,2516
0.28374990000000005,2839
0.28624990000000006,2507
0.28874990000000006,1326
0.2912499,159
0.2937499,417
0.2962499,1857
0.2987499,2707
0.3012499,2805
0.3037499,2230
0.3062499,833
0.3087499,40
0.3112499,863
0.3137499,2238
0.31624990000000003,2808
0.31874990000000003,2695
0.32124990000000003,1811
0.32374990000000003,427
0.32624990000000004,117
0.32874990000000004,1382
0.33124990000000004,2512
0.33374990000000004,2834
0.33624990000000005,2502
0.33874990000000005,1195
0.34124990000000005,114
0.34374990000000005,518
0.34624990000000005,1861
0.34874990000000006,2702
0.35124990000000006,2795
0.3537499,2215
0.3562499,821
0.3587499,41
0.3612499,881
0.3637499,2251
0.3662499,2855
0.3687499,2774
0.3712499,1878
0.3737499,473
0.3762499,151
0.37874990000000003,1403
0.38124990000000003,2510
0.38374990000000003,2816
0.38624990000000003,2481
0.38874990000000004,1295
0.39124990000000004,146
0.39374990000000004,430
0.39624990000000004,1870
0.39874990000000005,2707
0.40124990000000005,2797
0.40374990000000005,2209
0.40624990000000005,810
0.40874990000000005,38
0.41124990000000006,884
0.41374990000000006,2252
0.41624990000000006,2810
0.4187499,2689
0.4212499,1795
0.4237499,415
0.4262499,128
0.4287499,1408
0.4312499,2523
0.4337499,2834
0.4362499,2494
0.4387499,1297
0.44124990000000003,149
0.44374990000000003,441
0.44624990000000003,1880
0.44874990000000003,2711
0.45124990000000004,2794
0.45374990000000004,2197
0.45624990000000004,797
0.45874990000000004,37
0.46124990000000005,894
0.46374990000000005,2255
0.46624990000000005,2810
0.46874990000000005,2690
0.47124990000000005,1790
0.47374990000000006,414
0.47624990000000006,135
0.47874990000000006,1413
0.4812499,2523
0.4837499,2829
0.4862499,2484
0.4887499,1284
0.4912499,143
0.4937499,443
0.4962499,1883
0.4987499,2710
0.5012499,2789
0.5037499000000001,2196
0.5062499,791
0.5087499000000001,33
0.5112499,902
0.5137499,2255
0.5162499,2802
0.5187499,2674
0.5212499,1770
0.5237499,404
0.5262499,138
0.5287499,1419
0.5312499,2528
0.5337499,2829
0.5362499000000001,2481
0.5387499,1272
0.5412499000000001,141
0.5437499,457
0.5462499000000001,1896
0.5487499,2710
0.5512499000000001,2784
0.5537499,2180
0.5562499000000001,779
0.5587499,35
0.5612499000000001,908
0.5637499,2262
0.5662499000000001,2806
0.5687499,2679
0.5712499000000001,1764
0.5737499,394
0.5762499000000001,133
0.5787499,1422
0.5812499,2528
0.5837499,2831
0.5862499,2475
0.5887499,1260
0.5912499,128
0.5937499,454
0.5962499,1899
0.5987499000000001,2718
0.6012499,2789
0.6037499000000001,2184
0.6062499,778
0.6087499000000001,35
0.6112499,915
0.6137499000000001,2268
0.6162499,2811
0.6187499000000001,2676
0.6212499,1754
0.6237499000000001,389
0.6262499,141
0.6287499000000001,1438
0.6312499,2533
0.6337499000000001,2829
0.6362499,2457
0.6387499000000001,1182
0.6412499,53
0.6437499,410
0.6462499,1873
0.6487499,2711
0.6512499,2794
0.6537499,2183
0.6562499,778
0.6587499,43
0.6612499000000001,931
0.6637499,2284
0.6662499000000001,2823
0.6687499,2686
0.6712499000000001,1759
0.6737499,391
0.6762499000000001,146
0.6787499,1450
0.6812499000000001,2536
0.6837499,2826
0.6862499000000001,2465
0.6887499,1245
0.6912499000000001,125
0.6937499,472
0.6962499000000001,1922
0.6987499,2734
0.7012499000000001,2800
0.7037499,2173
0.7062499,766
0.7087499,35
0.7112499,932
0.7137499,2280
0.7162499,2813
0.7187499,2668
0.7212499,1738
0.7237499000000001,378
0.7262499,151
0.7287499000000001,1463
0.7312499,2552
0.7337499000000001,2839
0.7362499,2470
0.7387499000000001,1235
0.7412499,80
0.7437499000000001,563
0.7462499,2006
0.7487499000000001,2719
0.7512499,2787
0.7537499000000001,2167
0.7562499,758
0.7587499000000001,43
0.7612499,947
0.7637499000000001,2292
0.7662499,2819
0.7687499000000001,2673
0.7712499,1735
0.7737499,378
0.7762499,153
0.7787499,1461
0.7812499,2544
0.7837499,2829
0.7862499000000001,2465
0.7887499,1232
0.7912499000000001,128
0.7937499,489
0.7962499000000001,1936
0.7987499,2731
0.8012499000000001,2784
0.8037499,2154
0.8062499000000001,746
0.8087499,40
0.8112499000000001,958
0.8137499,2299
0.8162499000000001,2819
0.8187499,2668
0.8212499000000001,1727
0.8237499,372
0.8262499000000001,164
0.8287499,1479
0.8312499000000001,2557
0.8337499,2832
0.8362499,2465
0.8387499,1223
0.8412499,117
0.8437499,491
0.8462499,1935
0.8487499000000001,2723
0.8512499,2777
0.8537499000000001,2149
0.8562499,741
0.8587499000000001,40
0.8612499,961
0.8637499000000001,2296
0.8662499,2816
0.8687499000000001,2661
0.8712499,1714
0.8737499000000001,365
0.8762499,162
0.8787499000000001,1482
0.8812499,2552
0.8837499000000001,2827
0.8862499,2449
0.8887499000000001,1203
0.8912499,109
0.8937499000000001,491
0.8962499,1938
0.8987499,2729
0.9012499,2786
0.9037499,2144
0.9062499,734
0.9087499,83
0.9112499000000001,1052
0.9137499,2371
0.9162499000000001,2855
0.9187499,2671
0.9212499000000001,1706
0.9237499,351
0.9262499000000001,154
0.9287499,1492
0.9312499000000001,2555
0.9337499,2824
0.9362499000000001,2441
0.9387499,1195
0.9412499000000001,107
0.9437499,501
0.9462499000000001,1944
0.9487499,2728
0.9512499000000001,2773
0.9537499,2126
0.9562499000000001,713
0.9587499,30
0.9612499,976
0.9637499,2299
0.9662499,2811
0.9687499,2655
0.9712499,1695
0.9737499000000001,346
0.9762499,164
0.9787499000000001,1498
0.9812499,2565
0.9837499000000001,2834
0.9862499,2447
0.9887499000000001,1197
0.9912499,112
0.9937499000000001,518
0.9962499,1962
0.9987499000000001,2742
1.0012499,2786
1.0037498999999999,2135
1.0062499,721
1.0087499,40
1.0112499,987
1.0137498999999999,2312
1.0162499,2816
1.0187499,2649
1.0212499,1685
1.0237498999999999,343
1.0262498999999998,170
1.0287499,1504
1.0312499,2563
1.0337498999999999,2826
1.0362498999999998,2431
1.0387499,1173
1.0412499,95
1.0437499,509
1.0462498999999998,1959
1.0487499,2732
1.0512499,2774
1.0537499,2122
1.0562498999999999,712
1.0587499,40
1.0612499,997
1.0637499,2320
1.0662498999999999,2824
1.0687499,2657
1.0712499,1685
1.0737499,343
1.0762498999999999,175
1.0787499,1513
1.0812499,2570
1.0837499,2829
1.0862498999999999,2439
1.0887499,1181
1.0912499,107
1.0937499,534
1.0962498999999999,1980
1.0987498999999998,2742
1.1012499,2768
1.1037499,2106
1.1062499,692
1.1087498999999998,30
1.1112499,1003
1.1137499,2331
1.1162499,2835
1.1187498999999999,2665
1.1212499,1682
1.1237499,336
1.1262499,178
1.1287498999999999,1519
1.1312499,2573
1.1337499,2834
1.1362499,2442
1.1387498999999999,1171
1.1412499,69
1.1437499,642
1.1462499,2077
1.1487498999999999,2744
1.1512499,2773
1.1537499,2106
1.1562499,688
1.1587498999999999,35
1.1612498999999998,1013
1.1637499,2333
1.1662499,2826
1.1687499,2649
1.1712498999999998,1662
1.1737499,327
1.1762499,186
1.1787499,1525
1.1812498999999999,2518
1.1837499,2763
1.1862499,2376
1.1887499,1126
1.1912498999999999,83
1.1937499,549
1.1962499,2001
1.1987499,2758
1.2012498999999999,2784
1.2037499,2107
1.2062499,684
1.2087499,37
1.2112498999999999,1032
1.2137499,2336
1.2162499,2824
1.2187499,2644
1.2212498999999999,1656
1.2237498999999998,327
1.2262499,198
1.2287499,1551
1.2312499,2591
1.2337498999999998,2837
1.2362499,2423
1.2387499,1145
1.2412499,91
1.2437498999999999,549
1.2462499,1993
1.2487499,2748
1.2512499,2774
1.2537498999999999,2096
1.2562499,679
1.2587499,43
1.2612499,1045
1.2637498999999999,2344
1.2662499,2821
1.2687499,2631
1.2712499,1641
1.2737498999999999,319
1.2762499,199
1.2787499,1553
1.2812499,2587
1.2837498999999999,2831
1.2862498999999998,2420
1.2887499,1145
1.2912499,98
1.2937499,565
1.2962498999999998,2004
1.2987499,2748
1.3012499,2768
1.3037499,2091
1.3062498999999999,671
1.3087499,43
1.3112499,1047
1.3137499,2342
1.3162498999999999,2819
1.3187499,2631
1.3212499,1635
1.3237499,314
1.3262498999999999,211
1.3287499,1571
1.3312499,2597
1.3337499,2837
1.3362498999999999,2421
1.3387499,1135
1.3412499,98
1.3437499,573
1.3462498999999999,2014
1.3487498999999998,2752
1.3512499,2766
1.3537499,2080
1.3562499,663
1.3587498999999998,45
1.3612499,1057
1.3637499,2352
1.3662499,2823
1.3687498999999999,2632
1.3712499,1635
1.3737499,315
1.3762499,217
1.3787498999999999,1577
1.3812499,2595
1.3837499,2823
1.3862499,2402
1.3887498999999999,1118
1.3912499,87
1.3937499,573
1.3962499,2007
1.3987498999999999,2744
1.4012499,2758
1.4037499,2072
1.4062499,662
1.4087498999999999,56
1.4112498999999998,1077
1.4137499,2363
1.4162499,2827
1.4187499,2631
1.4212498999999998,1621
1.4237499,306
1.4262499,220
1.4287499,1582
1.4312498999999999,2595
1.4337499,2821
1.4362499,2396
1.4387499,1108
1.4412498999999999,87
1.4437499,584
1.4462499,2020
1.4487499,2755
1.4512498999999999,2806
1.4537499,2144
1.4562499,721
1.4587499,98
1.4612498999999999,1110
1.4637499,2368
1.4662499,2815
1.4687499,2605
1.4712498999999999,1593
1.4737498999999998,288
1.4762499,219
1.4787499,1593
1.4812499,2603
1.4837498999999998,2827
1.4862499,2392
1.4887499,1095
1.4912499,75
1.4937498999999999,586
1.4962499,2023
1.4987499,2750
1.5012499,2757
1.5037498999999999,2056
1.5062499,638
1.5087499,45
1.5112499,1087
1.5137498999999999,2355
1.5162499,2810
1.5187499,2605
1.5212499,1592
1.5237498999999999,290
1.5262499,227
1.5287499,1603
1.5312499,2610
1.5337498999999999,2827
1.5362499,2388
1.5387499,1089
1.5412499,54
1.5437499,715
1.5462498999999998,2135
1.5487499,2769
1.5512499,2765
1.5537499,2049
1.5562498999999999,625
1.5587499,43
1.5612499,1094
1.5637499,2373
1.5662498999999999,2826
1.5687499,2620
1.5712499,1592
1.5737499,291
1.5762498999999999,238
1.5787499,1614
1.5812499,2610
1.5837499,2819
1.5862498999999999,2379
1.5887499,1065
1.5912499,64
1.5937499,607
1.5962498999999999,2048
1.5987499,2761
1.6012499,2757
1.6037499,2033
1.6062499,613
1.6087498999999998,41
1.6112499,1102
1.6137499,2376
1.6162499,2831
1.6187498999999999,2613
1.6212499,1579
1.6237499,280
1.6262499,241
1.6287498999999999,1625
1.6312499,2616
1.6337499,2824
1.6362499,2375
1.6387498999999999,1057
1.6412499,66
1.6437499,623
1.6462499,2065
1.6487498999999999,2776
1.6512499,2760
1.6537499,2027
1.6562499,604
1.6587498999999999,51
1.6612499,1127
1.6637499,2392
1.6662499,2834
1.6687499,2611
1.6712498999999998,1569
1.6737499,275
1.6762499,249
1.6787499,1638
1.6812498999999999,2623
1.6837499,2826
1.6862499,2370
1.6887499,1058
1.6912498999999999,78
1.6937499,642
1.6962499,2065
1.6987499,2763
1.7012498999999999,2752
1.7037499,2022
1.7062499,609
1.7087499,62
1.7112498999999999,1142
1.7137499,2389
1.7162499,2823
1.7187499,2595
1.7212498999999999,1532
1.7237499,190
1.7262499,188
1.7287499,1583
1.7312499,2587
1.7337498999999998,2810
1.7362499,2367
1.7387499,1057
1.7412499,82
1.7437498999999999,654
1.7462499,2078
1.7487499,2768
1.7512499,2747
1.7537498999999999,2014
1.7562499,599
1.7587499,67
1.7612499,1161
1.7637498999999999,2405
1.7662499,2832
1.7687499,2603
1.7712499,1550
1.7737498999999999,270
1.7762499,270
1.7787499,1656
1.7812499,2626
1.7837498999999999,2818
1.7862499,2354
1.7887499,1032
1.7912499,74
1.7937499,667
1.7962498999999998,2089
1.7987499,2774
1.8012499,2748
1.8037499,2006
1.8062498999999999,592
1.8087499,66
1.8112499,1166
1.8137499,2408
1.8162498999999999,2829
1.8187499,2594
1.8212499,1533
1.8237499,261
1.8262498999999999,278
1.8287499,1674
1.8312499,2639
1.8337499,2826
1.8362498999999999,2357
1.8387499,1024
1.8412499,67
1.8437499,676
1.8462498999999999,2097
1.8487499,2771
1.8512499,2739
1.8537499,1985
1.8562499,573
1.8587498999999998,61
1.8612499,1169
1.8637499,2408
1.8662499,2831
1.8687498999999999,2591
1.8712499,1522
1.8737499,257
1.8762499,283
1.8787498999999999,1682
1.8812499,2644
1.8837499,2826
1.8862499,2347
1.8887498999999999,1008
1.8912499,56
1.8937499,671
1.8962499,2096
1.8987498999999999,2776
1.9012499,2747
1.9037499,1986
1.9062499,570
1.9087498999999999,69
1.9112499,1187
1.9137499,2420
1.9162499,2831
1.9187499,2584
1.9212498999999998,1506
1.9237499,243
1.9262499,283
1.9287499,1693
1.9312498999999999,2642
1.9337499,2816
1.9362499,2328
1.9387499,874
1.9412498999999999,32
1.9437499,792
1.9462499,2109
1.9487499,2781
1.9512498999999999,2745
1.9537499,1973
1.9562499,555
1.9587499,62
1.9612498999999999,1194
1.9637499,2426
1.9662499,2837
1.9687499,2586
1.9712498999999999,1500
1.9737499,241
1.9762499,294
1.9787499,1701
1.9812499,2652
1.9837499,2827
1.9862499,2333
1.9887499,984
1.9912499,51
1.9937498999999999,736
1.9962499,2191
1.9987499,2852
2.0012499,2784
2.0037499,1983
2.0062499,546
2.0087498999999998,51
2.0112499,1197
2.0137499,2423
2.0162499,2829
2.0187499,2573
2.0212499,1480
2.0237499,223
2.0262499,293
2.0287498999999998,1704
2.0312499,2650
2.0337499,2819
2.0362499,2321
2.0387499,973
2.0412499,54
2.0437499,708
2.0462499,2133
2.0487499,2797
2.0512498999999997,2750
2.0537499,1967
2.0562499,547
2.0587499,69
2.0612499,1219
2.0637499,2434
2.0662499,2831
2.0687499,2570
2.0712498999999998,1471
2.0737499,220
2.0762499,298
2.0787499,1711
2.0812499,2652
2.0837499,2815
2.0862499,2315
2.0887499,966
2.0912498999999998,54
2.0937499,720
2.0962499,2138
2.0987499,2790
2.1012499,2737
2.1037499,1951
2.1062499,536
2.1087499,70
2.1112499,1223
2.1137498999999997,2431
2.1162499,2824
2.1187499,2563
2.1212499,1466
2.1237499,227
2.1262499,315
2.1287499,1728
2.1312499,2660
2.1337498999999998,2816
2.1362499,2312
2.1387499,960
2.1412499,54
2.1437499,728
2.1462499,2139
2.1487499,2782
2.1512499,2729
2.1537498999999998,1936
2.1562499,528
2.1587499,77
2.1612499,1240
2.1637499,2447
2.1662499,2835
2.1687499,2570
2.1712499,1471
2.1737499,236
2.1762499,336
2.1787499,1751
2.1812499,2665
2.1837499,2813
2.1862499,2309
2.1887499,952
2.1912499,56
2.1937499,741
2.1962498999999998,2147
2.1987499,2786
2.2012499,2723
2.2037499,1920
2.2062499,518
2.2087499,80
2.2112499,1252
2.2137499,2444
2.2162498999999998,2823
2.2187499,2549
2.2212499,1438
2.2237499,211
2.2262499,328
2.2287499,1746
2.2312499,2658
2.2337499,2802
2.2362499,2286
2.2387499,928
2.2412499,41
2.2437499,741
2.2462499,2152
2.2487499,2782
2.2512499,2716
2.2537499,1914
2.2562499,507
2.2587498999999998,77
2.2612499,1261
2.2637499,2436
2.2662499,2758
2.2687499,2476
2.2712499,1377
2.2737499,182
2.2762499,333
2.2787498999999998,1762
2.2812499,2681
2.2837499,2824
2.2862499,2300
2.2887499,934
2.2912499,51
2.2937499,755
2.2962499,2157
2.2987499,2787
2.3012499,2723
2.3037499,1912
2.3062499,512
2.3087499,90
2.3112499,1272
2.3137499,2460
2.3162499,2834
2.3187499,2553
2.3212498999999998,1429
2.3237499,209
2.3262499,348
2.3287499,1767
2.3312499,2673
2.3337499,2810
2.3362499,2283
2.3387499,912
2.3412498999999998,37
2.3437499,881
2.3462499,2247
2.3487499,2794
2.3512499,2719
2.3537499,1898
2.3562499,497
2.3587499,96
2.3612499,1293
2.3637499,2468
2.3662499,2832
2.3687499,2541
2.3712499,1408
2.3737499,203
2.3762499,360
2.3787499,1785
2.3812499,2676
2.3837498999999998,2805
2.3862499,2276
2.3887499,910
2.3912499,56
2.3937499,792
2.3962499,2184
2.3987499,2792
2.4012499,2713
2.4037498999999998,1880
2.4062499,485
2.4087499,93
2.4112499,1300
2.4137499,2475
2.4162499,2832
2.4187499,2534
2.4212499,1395
2.4237499,191
2.4262499,364
2.4287499,1795
2.4312499,2678
2.4337499,2803
2.4362499,2263
2.4387499,889
2.4412499,40
2.4437499,791
2.4462498999999998,2186
2.4487499,2797
2.4512499,2715
2.4537499,1873
2.4562499,476
2.4587499,98
2.4612499,1316
2.4637499,2478
2.4662498999999998,2831
2.4687499,2533
2.4712499,1384
2.4737499,177
2.4762499,364
2.4787499,1798
2.4812499,2686
2.4837499,2813
2.4862499,2268
2.4887499,887
2.4912499,45
2.4937499,810
2.4962499,2202
2.4987499,2802
2.5012499,2711
2.5037499,1864
2.5062499,462
2.5087498999999998,91
2.5112499,1326
2.5137499,2487
2.5162499,2835
2.5187499,2529
2.5212499,1371
2.5237499,170
2.5262499,373
2.5287498999999998,1806
2.5312499,2686
2.5337499,2802
2.5362499,2294
2.5387499,941
2.5412499,106
2.5437499,865
2.5462499,2228
2.5487499,2802
2.5512499,2699
2.5537499,1841
2.5562499,447
2.5587499,101
2.5612499,1340
2.5637499,2500
2.5662499,2840
2.5687499,2523
2.5712498999999998,1359
2.5737499,169
2.5762499,383
2.5787499,1814
2.5812499,2686
2.5837499,2800
2.5862499,2241
2.5887499,857
2.5912498999999998,33
2.5937499,820
2.5962499,2209
2.5987499,2802
2.6012499,2711
2.6037499,1851
2.6062499,457
2.6087499,109
2.6112499,1348
2.6137499,2494
2.6162499,2829
2.6187499,2518
2.6212499,1350
2.6237499,167
2.6262499,402
2.6287499,1843
2.6312499,2703
2.6337498999999998,2802
2.6362499,2233
2.6387499,842
2.6412499,37
2.6437499,842
2.6462499,2225
2.6487499,2808
2.6512499,2707
2.6537498999999998,1838
2.6562499,449
2.6587499,117
2.6612499,1363
2.6637499,2502
2.6662499,2832
2.6687499,2510
2.6712499,1334
2.6737499,157
2.6762499,399
2.6787499,1843
2.6812499,2699
2.6837499,2802
2.6862499,2234
2.6887499,842
2.6912499,40
2.6937499,852
2.6962498999999998,2226
2.6987499,2800
2.7012499,2694
2.7037499,1815
2.7062499,430
2.7087499,120
2.7112499,1384
2.7137499,2521
2.7162498999999998,2840
2.7187499,2510
2.7212499,1321
2.7237499,149
2.7262499,410
2.7287499,1857
2.7312499,2711
2.7337499,2805
2.7362499,2144
2.7387499,725
2.7412499,33
2.7437499,857
2.7462499,2236
2.7487499,2813
2.7512499,2705
2.7537499,1817
2.7562499,427
2.7587498999999998,119
2.7612499,1393
2.7637499,2526
2.7662499,2845
2.7687499,2510
2.7712499,1314
2.7737499,145
2.7762499,417
2.7787498999999998,1864
2.7812499,2713
2.7837499,2806
2.7862499,2215
2.7887499,810
2.7912499,29
2.7937499,871
2.7962499,2251
2.7987499,2824
2.8012499,2705
2.8037499,1799
2.8062499,388
2.8087499,51
2.8112499,1314
2.8137499,2471
2.8162499,2819
2.8187499,2499
2.8212498999999998,1303
2.8237499,143
2.8262499,428
2.8287499,1880
2.8312499,2726
2.8337499,2811
2.8362499,2209
2.8387499,796
2.8412498999999998,20
2.8437499,883
2.8462499,2263
2.8487499,2831
2.8512499,2707
2.8537499,1795
2.8562499,394
2.8587499,103
2.8612499,1390
2.8637499,2523
2.8662499,2842
2.8687499,2495
2.8712499,1279
2.8737499,120
2.8762499,420
2.8787499,1882
2.8812499,2731
2.8837498999999998,2816
2.8862499,2205
2.8887499,781
2.8912499,9
2.8937499,881
2.8962499,2268
2.8987499,2832
2.9012499,2702
2.9037498999999998,1774
2.9062499,377
2.9087499,106
2.9112499,1411
2.9137499,2547
2.9162499,2860
2.9187499,2502
2.9212499,1274
2.9237499,119
2.9262499,430
2.9287499,1894
2.9312499,2734
2.9337499,2813
2.9362499,2194
2.9387499,771
2.9412499,11
2.9437499,892
2.9462498999999998,2278
2.9487499,2842
2.9512499,2713
2.9537499,1775
2.9562499,375
2.9587499,111
2.9612499,1422
2.9637499,2549
2.9662498999999998,2860
2.9687499,2504
2.9712499,1268
2.9737499,116
2.9762499,441
2.9787499,1911
2.9812499,2745
2.9837499,2816
2.9862499,2191
2.9887499,765
2.9912499,12
2.9937499,902
2.9962499,2281
2.9987499,2839
3.0012499,2699
3.0037499,1761
3.0062499,368
3.0087499,120
3.0112499,1440
3.0137499,2558
3.0162499,2861
3.0187499,2487
3.0212499,1242
3.0237499,96
3.0262499,435
3.0287498999999998,1902
3.0312499,2739
3.0337499,2811
3.0362499,2181
3.0387499,750
3.0412499,9
3.0437499,921
3.0462499,2296
3.0487499,2842
3.0512499,2697
3.0537499,1746
3.0562499,357
3.0587499,119
3.0612499,1442
3.0637499,2560
3.0662499,2856
3.0687499,2481
3.0712499,1237
3.0737499,101
3.0762499,456
3.0787499,1969
3.0812499,2826
3.0837499,2882
3.0862499,2222
3.0887499,766
3.0912498999999998,14
3.0937499,920
3.0962499,2286
3.0987499,2831
3.1012499,2687
3.1037499,1740
3.1062499,357
3.1087499,133
3.1112499,1458
3.1137499,2558
3.1162499,2848
3.1187499,2473
3.1212499,1226
3.1237499,99
3.1262499,462
3.1287499,1928
3.1312499,2774
3.1337499,2789
3.1362499,2081
3.1387499,744
3.1412499,20
3.1437499,949
3.1462499,2310
3.1487499,2842
3.1512499,2690
3.1537498999999998,1733
3.1562499,356
3.1587499,141
3.1612499,1471
3.1637499,2565
3.1662499,2845
3.1687499,2463
3.1712499,1206
3.1737499,90
3.1762499,467
3.1787499,1936
3.1812499,2742
3.1837499,2794
3.1862499,2144
3.1887499,715
3.1912499,6
3.1937499,944
3.1962499,2304
3.1987499,2834
3.2012499,2679
3.2037499,1714
3.2062499,338
3.2087499,135
3.2112499,1472
3.2137499,2563
3.2162498999999998,2842
3.2187499,2458
3.2212499,1197
3.2237499,83
3.2262499,475
3.2287499,1943
3.2312499,2740
3.2337499,2794
3.2362499,2141
3.2387499,713
3.2412499,12
3.2437499,958
3.2462499,2310
3.2487499,2829
3.2512499,2665
3.2537499,1696
3.2562499,331
3.2587499,146
3.2612499,1488
3.2637499,2566
3.2662499,2845
3.2687499,2455
3.2712499,1187
3.2737499,85
3.2762499,491
3.2787498999999998,1948
3.2812499,2742
3.2837499,2784
3.2862499,2123
3.2887499,688
3.2912499,0
3.2937499,957
3.2962499,2309
3.2987499,2829
3.3012499,2666
3.3037499,1695
3.3062499,325
3.3087499,149
3.3112499,1501
3.3137499,2578
3.3162499,2847
3.3187499,2444
3.3212499,1171
3.3237499,77
3.3262499,497
3.3287499,1961
3.3312499,2752
3.3337499,2795
3.3362499,2126
3.3387499,694
3.3412498999999998,14
3.3437499,989
3.3462499,2323
3.3487499,2815
3.3512499,2587
3.3537499,1601
3.3562499,261
3.3587499,133
3.3612499,1504
3.3637499,2589
3.3662499,2860
3.3687499,2454
3.3712499,1169
3.3737499,80
3.3762499,509
3.3787499,1972
3.3812499,2757
3.3837499,2794
3.3862499,2122
3.3887499,688
3.3912499,20
3.3937499,1007
3.3962499,2346
3.3987499,2847
3.4012499,2666
3.4037498999999998,1670
3.4062499,312
3.4087499,162
3.4112499,1530
3.4137499,2599
3.4162499,2853
3.4187499,2444
3.4212499,1153
3.4237499,75
3.4262499,522
3.4287499,1990
3.4312499,2763
3.4337499,2795
3.4362499,2120
3.4387499,686
3.4412499,25
3.4437499,1015
3.4462499,2350
3.4487499,2850
3.4512499,2669
3.4537499,1667
3.4562499,312
3.4587499,177
3.4612499,1543
3.4637499,2605
3.4662498999999998,2856
3.4687499,2446
3.4712499,1152
3.4737499,82
3.4762499,536
3.4787499,2002
3.4812499,2768
3.4837499,2794
3.4862499,2107
3.4887499,668
3.4912499,12
3.4937499,1011
3.4962499,2341
3.4987499,2839
3.5012499,2657
3.5037499,1654
3.5062499,309
3.5087499,186
3.5112499,1563
3.5137499,2613
3.5162499,2855
3.5187499,2436
3.5212499,1132
3.5237499,38
3.5262499,649
3.5287498999999998,2102
3.5312499,2777
3.5337499,2800
3.5362499,2102
3.5387499,660
3.5412499,19
3.5437499,1037
3.5462499,2363
3.5487499,2855
3.5512499,2666
3.5537499,1651
3.5562499,302
3.5587499,193
3.5612499,1575
3.5637499,2623
3.5662499,2860
3.5687499,2426
3.5712499,1118
3.5737499,64
3.5762499,555
3.5787499,2020
3.5812499,2773
3.5837499,2787
3.5862499,2086
3.5887499,652
3.5912498999999998,27
3.5937499,1060
3.5962499,2370
3.5987499,2850
3.6012499,2652
3.6037499,1632
3.6062499,288
3.6087499,190
3.6112499,1575
3.6137499,2616
3.6162499,2856
3.6187499,2420
3.6212499,1156
3.6237499,143
3.6262499,641
3.6287499,2081
3.6312499,2805
3.6337499,2797
3.6362499,2073
3.6387499,630
3.6412499,19
3.6437499,1066
3.6462499,2379
3.6487499,2855
3.6512499,2649
3.6537498999999998,1617
3.6562499,278
3.6587499,198
3.6612499,1590
3.6637499,2626
3.6662499,2856
3.6687499,2417
3.6712499,1097
3.6737499,56
3.6762499,570
3.6787499,2035
3.6812499,2779
3.6837499,2784
3.6862499,2064
3.6887499,618
3.6912499,14
3.6937499,1068
3.6962499,2379
3.6987499,2855
3.7012499,2649
3.7037499,1608
3.7062499,275
3.7087499,203
3.7112499,1600
3.7137499,2628
3.7162498999999998,2853
3.7187499,2408
3.7212499,1084
3.7237499,54
3.7262499,581
3.7287499,2043
3.7312499,2782
3.7337499,2786
3.7362499,2056
3.7387499,615
3.7412499,24
3.7437499,1090
3.7462499,2389
3.7487499,2856
3.7512499,2644
3.7537499,1596
3.7562499,264
3.7587499,207
3.7612499,1614
3.7637499,2639
3.7662499,2864
3.7687499,2415
3.7712499,1076
3.7737499,49
3.7762499,591
3.7787498999999998,2054
3.7812499,2787
3.7837499,2786
3.7862499,2044
3.7887499,599
3.7912499,17
3.7937499,1095
3.7962499,2394
3.7987499,2856
3.8012499,2637
3.8037499,1585
3.8062499,259
3.8087499,217
3.8112499,1624
3.8137499,2642
3.8162499,2860
3.8187499,2396
3.8212499,1055
3.8237499,45
3.8262499,607
3.8287499,2075
3.8312499,2806
3.8337499,2792
3.8362499,2038
3.8387499,583
3.8412498999999998,1
3.8437499,1102
3.8462499,2400
3.8487499,2860
3.8512499,2642
3.8537499,1582
3.8562499,254
3.8587499,217
3.8612499,1627
3.8637499,2640
3.8662499,2847
3.8687499,2376
3.8712499,1034
3.8737499,30
3.8762499,604
3.8787499,2073
3.8812499,2802
3.8837499,2789
3.8862499,2035
3.8887499,583
3.8912499,0
3.8937499,1053
3.8962499,2339
3.8987499,2813
3.9012499,2611
3.9037499,1559
3.9062499,252
3.9087499,238
3.9112499,1653
3.9137499,2661
3.9162499,2866
3.9187499,2313
3.9212499,913
3.9237499,8
3.9262499,602
3.9287499,2068
3.9312499,2797
3.9337499,2784
3.9362499,2028
3.9387499,573
3.9412499,14
3.9437499,1119
3.9462499,2408
3.9487499,2858
3.9512499,2628
3.9537499,1551
3.9562499,236
3.9587499,230
3.9612499,1648
3.9637499,2660
3.9662499,2864
3.9687499,2384
3.9712499,1023
3.9737499,32
3.9762499,625
3.9787499,2093
3.9812499,2811
3.9837499,2792
3.9862499,2022
3.9887499,565
3.9912499,12
3.9937499,1134
3.9962499,2418
3.9987499,2864
4.0012499,2628
4.003749900000001,1540
4.0062499,230
4.008749900000001,238
4.0112499,1670
4.0137499000000005,2663
4.0162499,2856
4.0187499,2373
4.021249900000001,1008
4.0237499,27
4.026249900000001,634
4.0287499,2094
4.031249900000001,2803
4.0337499,2781
4.0362499000000005,2007
4.0387499,557
4.0412499,19
4.043749900000001,1147
4.0462499,2421
4.048749900000001,2860
4.0512499,2615
4.053749900000001,1524
4.0562499,220
4.0587499000000005,241
4.061249900000001,1679
4.0637499,2668
4.066249900000001,2855
4.0687499,2365
4.071249900000001,994
4.0737499,16
4.0762499000000005,633
4.0787499,2089
4.0812499,2790
4.083749900000001,2768
4.0862499,1991
4.088749900000001,544
4.0912499,19
4.093749900000001,1165
4.0962499,2439
4.0987499000000005,2869
4.1012499,2620
4.1037499,1522
4.106249900000001,222
4.1087499,246
4.111249900000001,1669
4.1137499,2658
4.116249900000001,2850
4.1187499,2357
4.1212499000000005,990
4.123749900000001,22
4.1262499,647
4.128749900000001,2106
4.1312499,2810
4.133749900000001,2781
4.1362499,1996
4.1387499000000005,546
4.1412499,29
4.1437499,1171
4.146249900000001,2433
4.1487499,2858
4.151249900000001,2605
4.1537499,1503
4.156249900000001,211
4.1587499,256
4.1612499000000005,1691
4.1637499,2724
4.1662499,2935
4.168749900000001,2425
4.1712499,1026
4.173749900000001,40
4.1762499,659
4.178749900000001,2102
4.1812499,2794
4.1837499000000005,2761
4.186249900000001,1975
4.1887499,531
4.191249900000001,25
4.1937499,1177
4.196249900000001,2442
4.1987499,2866
4.2012499000000005,2607
4.2037499,1496
4.2062499,201
4.208749900000001,244
4.2112499,1682
4.213749900000001,2663
4.2162499,2845
4.218749900000001,2344
4.2212499,966
4.2237499000000005,17
4.2262499,668
4.2287499,2125
4.231249900000001,2813
4.2337499,2771
4.236249900000001,1970
4.2387499,520
4.241249900000001,25
4.2437499,1189
4.2462499000000005,2446
4.248749900000001,2863
4.2512499,2599
4.253749900000001,1485
4.2562499,203
4.258749900000001,269
4.2612499,1712
4.2637499000000005,2684
4.2662499,2853
4.2687499,2342
4.271249900000001,960
4.2737499,17
4.276249900000001,678
4.2787499,2133
4.281249900000001,2818
4.2837499,2773
4.2862499000000005,1970
4.288749900000001,525
4.2912499,43
4.293749900000001,1211
4.2962499,2457
4.298749900000001,2866
4.3012499,2599
4.303749900000001,1474
4.3062499,193
4.3087499000000005,275
4.311249900000001,1716
4.3137499,2682
4.316249900000001,2840
4.3187499,2260
4.321249900000001,844
4.3237499,20
4.3262499000000005,692
4.3287499,2144
4.3312499,2819
4.333749900000001,2769
4.3362499,1957
4.338749900000001,512
4.3412499,35
4.343749900000001,1214
4.3462499,2454
4.3487499000000005,2856
4.351249900000001,2584
4.3537499,1453
4.356249900000001,177
4.3587499,273
4.361249900000001,1725
4.3637499,2695
4.366249900000001,2858
4.3687499,2331
4.3712499000000005,937
4.373749900000001,9
4.3762499,694
4.378749900000001,2143
4.3812499,2813
4.383749900000001,2761
4.3862499,1946
4.3887499000000005,496
4.3912499,29
4.3937499,1213
4.396249900000001,2458
4.3987499,2868
4.401249900000001,2594
4.4037499,1458
4.406249900000001,188
4.4087499,288
4.4112499000000005,1735
4.413749900000001,2687
4.4162499,2850
4.418749900000001,2326
4.4212499,936
4.423749900000001,19
4.4262499,715
4.428749900000001,2155
4.4312499,2819
4.4337499000000005,2731
4.436249900000001,1856
4.4387499,414
4.441249900000001,0
4.4437499,1223
4.446249900000001,2470
4.4487499,2874
4.4512499000000005,2592
4.4537499,1448
4.4562499,182
4.458749900000001,298
4.4612499,1753
4.463749900000001,2703
4.4662499,2858
4.468749900000001,2328
4.4712499,926
4.4737499000000005,11
4.476249900000001,718
4.4787499,2162
4.481249900000001,2823
4.4837499,2760
4.486249900000001,1927
4.4887499,488
4.491249900000001,46
4.4937499,1247
4.4962499000000005,2476
4.498749900000001,2869
4.5012499,2582
4.503749900000001,1437
4.5062499,177
4.508749900000001,304
4.5112499,1762
4.5137499000000005,2700
4.5162499,2847
4.5187499,2310
4.521249900000001,913
4.5237499,12
4.526249900000001,733
4.5287499,2175
4.531249900000001,2829
4.5337499,2761
4.5362499000000005,1922
4.538749900000001,483
4.5412499,53
4.543749900000001,1260
4.5462499,2483
4.548749900000001,2868
4.5512499,2574
4.553749900000001,1421
4.5562499,170
4.5587499000000005,312
4.561249900000001,1761
4.5637499,2695
4.566249900000001,2840
4.5687499,2297
4.571249900000001,900
4.5737499,14
4.5762499000000005,746
4.5787499,2180
4.5812499,2826
4.583749900000001,2753
4.5862499,1907
4.588749900000001,470
4.5912499,49
4.593749900000001,1266
4.5962499,2479
4.5987499000000005,2861
4.601249900000001,2566
4.6037499,1409
4.606249900000001,165
4.6087499,319
4.611249900000001,1772
4.6137499,2702
4.616249900000001,2844
4.6187499,2294
4.6212499000000005,891
4.623749900000001,11
4.6262499,754
4.628749900000001,2186
4.6312499,2826
4.633749900000001,2750
4.6362499,1902
4.6387499000000005,470
4.6412499,61
4.6437499,1284
4.646249900000001,2487
4.6487499,2860
4.651249900000001,2557
4.6537499,1392
4.656249900000001,157
4.6587499,327
4.6612499000000005,1785
4.663749900000001,2708
4.6662499,2842
4.668749900000001,2288
4.6712499,878
4.673749900000001,6
4.6762499,763
4.678749900000001,2194
4.6812499,2826
4.6837499000000005,2740
4.686249900000001,1886
4.6887499,452
4.691249900000001,54
4.6937499,1293
4.696249900000001,2502
4.6987499,2874
4.7012499000000005,2568
4.7037499,1393
4.7062499,206
4.708749900000001,410
4.7112499,1861
4.713749900000001,2781
4.7162499,2831
4.718749900000001,2188
4.7212499,857
4.7237499000000005,1
4.726249900000001,758
4.7287499,2188
4.731249900000001,2821
4.7337499,2742
4.736249900000001,1878
4.7387499,451
4.741249900000001,67
4.7437499,1303
4.7462499000000005,2504
4.748749900000001,2868
4.7512499,2552
4.753749900000001,1369
4.7562499,141
4.758749900000001,335
4.7612499,1803
4.7637499000000005,2715
4.7662499,2842
4.7687499,2280
4.771249900000001,863
4.7737499,9
4.776249900000001,784
4.7787499,2209
4.781249900000001,2832
4.7837499,2739
4.7862499000000005,1859
4.788749900000001,430
4.7912499,59
4.793749900000001,1314
4.7962499,2510
4.798749900000001,2868
4.8012499,2550
4.803749900000001,1361
4.8062499,140
4.8087499000000005,346
4.811249900000001,1812
4.8137499,2719
4.816249900000001,2842
4.8187499,2270
4.821249900000001,852
4.8237499,8
4.8262499000000005,792
4.8287499,2217
4.8312499,2832
4.833749900000001,2731
4.8362499,1846
4.838749900000001,425
4.8412499,64
4.843749900000001,1322
4.8462499,2513
4.8487499000000005,2869
4.851249900000001,2545
4.8537499,1353
4.856249900000001,136
4.8587499,359
4.861249900000001,1827
4.8637499,2728
4.866249900000001,2845
4.8687499,2265
4.8712499000000005,845
4.873749900000001,6
4.8762499,802
4.878749900000001,2217
4.8812499,2826
4.883749900000001,2726
4.8862499,1840
4.8887499000000005,418
4.8912499,67
4.8937499,1334
4.896249900000001,2520
4.8987499,2869
4.901249900000001,2544
4.9037499,1345
4.906249900000001,135
4.9087499,364
4.9112499000000005,1827
4.913749900000001,2718
4.9162499,2831
4.918749900000001,2246
4.9212499,828
4.923749900000001,6
4.9262499,828
4.928749900000001,2239
4.9312499,2840
4.9337499000000005,2731
4.936249900000001,1838
4.9387499,417
4.941249900000001,75
4.9437499,1347
4.946249900000001,2521
4.9487499,2871
4.9512499000000005,2537
4.9537499,1332
4.9562499,133
4.958749900000001,380
4.9612499,1844
4.963749900000001,2726
4.9662499,2827
4.968749900000001,2241
4.9712499,820
4.9737499000000005,6
4.976249900000001,805
4.9787499,2162
4.981249900000001,2758
4.9837499,2668
4.986249900000001,1799
4.9887499,410
4.991249900000001,95
4.9937499,1374
4.9962499000000005,2539
4.998749900000001,2881
5.0012499,2542
5.003749900000001,1329
5.0062499,133
5.008749900000001,394
5.0112499,1856
5.0137499000000005,2726
5.0162499,2827
5.0187499,2231
5.021249900000001,808
5.0237499,6
5.026249900000001,833
5.0287499,2230
5.031249900000001,2827
5.0337499,2718
5.0362499000000005,1809
5.038749900000001,404
5.0412499,90
5.043749900000001,1366
5.0462499,2528
5.048749900000001,2871
5.0512499,2531
5.053749900000001,1310
5.0562499,125
5.0587499000000005,389
5.061249900000001,1846
5.0637499,2724
5.066249900000001,2832
5.0687499,2230
5.071249900000001,810
5.0737499,17
5.0762499000000005,854
5.0787499,2244
5.0812499,2840
5.083749900000001,2721
5.0862499,1806
5.088749900000001,409
5.0912499,103
5.093749900000001,1379
5.0962499,2531
5.0987499000000005,2868
5.101249900000001,2528
5.1037499,1303
5.106249900000001,127
5.1087499,401
5.111249900000001,1851
5.1137499,2752
5.116249900000001,2797
5.1187499,2212
5.1212499000000005,797
5.123749900000001,14
5.1262499,865
5.128749900000001,2257
5.1312499,2842
5.133749900000001,2721
5.1362499,1801
5.1387499000000005,404
5.1412499,109
5.1437499,1400
5.146249900000001,2539
5.1487499,2861
5.151249900000001,2502
5.1537499,1277
5.156249900000001,112
5.1587499,410
5.1612499000000005,1880
5.163749900000001,2739
5.1662499,2826
5.168749900000001,2209
5.1712499,783
5.173749900000001,6
5.1762499,873
5.178749900000001,2259
5.1812499,2835
5.1837499000000005,2711
5.186249900000001,1788
5.1887499,393
5.191249900000001,114
5.1937499,1414
5.196249900000001,2552
5.1987499,2866
5.2012499000000005,2500
5.2037499,1268
5.2062499,107
5.208749900000001,415
5.2112499,1888
5.213749900000001,2742
5.2162499,2824
5.218749900000001,2207
5.2212499,778
5.2237499000000005,12
5.226249900000001,891
5.2287499,2280
5.231249900000001,2848
5.2337499,2711
5.236249900000001,1777
5.2387499,383
5.241249900000001,116
5.2437499,1427
5.2462499000000005,2562
5.248749900000001,2921
5.2512499,2586
5.253749900000001,1334
5.2562499,148
5.258749900000001,443
5.2612499,1896
5.2637499000000005,2728
5.2662499,2805
5.2687499,2184
5.271249900000001,762
5.2737499,4
5.276249900000001,891
5.2787499,2281
5.281249900000001,2845
5.2837499,2705
5.2862499000000005,1762
5.288749900000001,372
5.2912499,117
5.293749900000001,1429
5.2962499,2555
5.298749900000001,2861
5.3012499,2497
5.303749900000001,1250
5.3062499,99
5.3087499000000005,431
5.311249900000001,1902
5.3137499,2747
5.316249900000001,2826
5.3187499,2196
5.321249900000001,766
5.3237499,17
5.3262499000000005,913
5.3287499,2296
5.3312499,2856
5.333749900000001,2715
5.3362499,1766
5.338749900000001,373
5.3412499,125
5.343749900000001,1442
5.3462499,2563
5.3487499000000005,2866
5.351249900000001,2494
5.3537499,1248
5.356249900000001,106
5.3587499,452
5.361249900000001,1920
5.3637499,2755
5.366249900000001,2821
5.3687499,2180
5.3712499000000005,747
5.373749900000001,8
5.3762499,924
5.378749900000001,2297
5.3812499,2850
5.383749900000001,2703
5.3862499,1751
5.3887499000000005,356
5.3912499,117
5.3937499,1443
5.396249900000001,2565
5.3987499,2866
5.401249900000001,2486
5.4037499,1235
5.406249900000001,101
5.4087499,459
5.4112499000000005,1925
5.413749900000001,2757
5.4162499,2818
5.418749900000001,2172
5.4212499,737
5.423749900000001,8
5.4262499,934
5.428749900000001,2300
5.4312499,2842
5.4337499000000005,2690
5.436249900000001,1733
5.4387499,352
5.441249900000001,127
5.4437499,1455
5.446249900000001,2566
5.4487499,2861
5.4512499000000005,2479
5.4537499,1221
5.4562499,95
5.458749900000001,460
5.4612499,1930
5.463749900000001,2752
5.4662499,2813
5.468749900000001,2167
5.4712499,726
5.4737499000000005,8
5.476249900000001,939
5.4787499,2310
5.481249900000001,2850
5.4837499,2697
5.486249900000001,1727
5.4887499,344
5.491249900000001,132
5.4937499,1469
5.4962499000000005,2571
5.498749900000001,2861
5.5012499,2470
5.503749900000001,1205
5.5062499,83
5.508749900000001,464
5.5112499,1936
5.5137499000000005,2757
5.5162499,2795
5.5187499,2036
5.521249900000001,546
5.5237499,0
5.526249900000001,907
5.5287499,2281
5.531249900000001,2834
5.5337499,2692
5.5362499000000005,1725
5.538749900000001,344
5.5412499,141
5.543749900000001,1485
5.5462499,2582
5.548749900000001,2863
5.5512499,2475
5.553749900000001,1198
5.5562499,78
5.5587499000000005,468
5.561249900000001,1940
5.5637499,2758
5.566249900000001,2816
5.5687499,2154
5.571249900000001,715
5.5737499,14
5.5762499000000005,963
5.5787499,2317
5.5812499,2842
5.583749900000001,2679
5.5862499,1703
5.588749900000001,328
5.5912499,135
5.593749900000001,1485
5.5962499,2574
5.5987499000000005,2853
5.601249900000001,2465
5.6037499,1189
5.606249900000001,87
5.6087499,491
5.611249900000001,1962
5.6137499,2768
5.616249900000001,2815
5.6187499,2144
5.6212499000000005,699
5.623749900000001,6
5.6262499,966
5.628749900000001,2320
5.6312499,2845
5.633749900000001,2678
5.6362499,1699
5.6387499000000005,335
5.6412499,156
5.6437499,1508
5.646249900000001,2589
5.6487499,2858
5.651249900000001,2450
5.6537499,1169
5.656249900000001,67
5.6587499,488
5.6612499000000005,1962
5.663749900000001,2766
5.6662499,2811
5.668749900000001,2135
5.6712499,694
5.673749900000001,12
5.6762499,987
5.678749900000001,2331
5.6812499,2850
5.6837499000000005,2681
5.686249900000001,1691
5.6887499,325
5.691249900000001,157
5.6937499,1511
5.696249900000001,2587
5.6987499,2858
5.7012499000000005,2449
5.7037499,1171
5.7062499,82
5.708749900000001,509
5.7112499,1975
5.713749900000001,2769
5.7162499,2808
5.718749900000001,2125
5.7212499,678
5.7237499000000005,3
5.726249900000001,984
5.7287499,2330
5.731249900000001,2847
5.7337499,2674
5.736249900000001,1675
5.7387499,317
5.741249900000001,167
5.7437499,1530
5.7462499000000005,2600
5.748749900000001,2858
5.7512499,2442
5.753749900000001,1152
5.7562499,67
5.758749900000001,512
5.7612499,1983
5.7637499000000005,2773
5.7662499,2810
5.7687499,2123
5.771249900000001,684
5.7737499,20
5.776249900000001,1011
5.7787499,2349
5.781249900000001,2852
5.7837499,2668
5.7862499000000005,1664
5.788749900000001,307
5.7912499,214
5.793749900000001,1603
5.7962499,2661
5.798749900000001,2893
5.8012499,2455
5.803749900000001,1142
5.8062499,58
5.8087499000000005,512
5.811249900000001,1983
5.8137499,2766
5.816249900000001,2797
5.8187499,2104
5.821249900000001,665
5.8237499,17
5.8262499000000005,1019
5.8287499,2349
5.8312499,2850
5.833749900000001,2665
5.8362499,1656
5.838749900000001,307
5.8412499,177
5.843749900000001,1543
5.8462499,2600
5.8487499000000005,2848
5.851249900000001,2429
5.8537499,1131
5.856249900000001,69
5.8587499,534
5.861249900000001,1993
5.8637499,2758
5.866249900000001,2784
5.8687499,2091
5.8712499000000005,655
5.873749900000001,16
5.8762499,1031
5.878749900000001,2354
5.8812499,2844
5.883749900000001,2653
5.8862499,1641
5.8887499000000005,298
5.8912499,183
5.8937499,1558
5.896249900000001,2605
5.8987499,2852
5.901249900000001,2418
5.9037499,1119
5.906249900000001,62
5.9087499,543
5.9112499000000005,2002
5.913749900000001,2765
5.9162499,2760
5.918749900000001,1983
5.9212499,552
5.923749900000001,17
5.9262499,1044
5.928749900000001,2355
5.9312499,2845
5.9337499000000005,2655
5.936249900000001,1637
5.9387499,299
5.941249900000001,198
5.9437499,1574
5.946249900000001,2615
5.9487499,2855
5.9512499000000005,2418
5.9537499,1115
5.9562499,66
5.958749900000001,555
5.9612499,2014
5.963749900000001,2769
5.9662499,2784
5.968749900000001,2073
5.9712499,631
5.9737499000000005,6
5.976249900000001,1044
5.9787499,2359
5.981249900000001,2840
5.9837499,2642
5.986249900000001,1617
5.9887499,283
5.991249900000001,191
5.9937499,1582
5.9962499000000005,2623
5.998749900000001,2856
6.0012499,2413
6.003749900000001,1100
6.0062499,59
6.008749900000001,567
6.0112499,2027
6.0137499000000005,2776
6.016249900000001,2784
6.0187499,2067
6.021249900000001,630
6.0237499,19
6.026249900000001,1060
6.0287499,2368
6.031249900000001,2845
6.0337499,2644
6.0362499000000005,1614
6.038749900000001,285
6.0412499,206
6.043749900000001,1593
6.0462499,2626
6.048749900000001,2856
6.0512499,2418
6.053749900000001,1095
6.0562499,59
6.0587499000000005,578
6.061249900000001,2014
6.0637499,2708
6.066249900000001,2715
6.0687499,2012
6.071249900000001,599
6.0737499,20
6.0762499000000005,1087
6.078749900000001,2397
6.0812499,2866
6.083749900000001,2652
6.0862499,1609
6.088749900000001,278
6.0912499,212
6.093749900000001,1604
6.0962499,2631
6.0987499000000005,2853
6.101249900000001,2405
6.1037499,1076
6.106249900000001,46
6.1087499,578
6.111249900000001,2039
6.1137499,2784
6.116249900000001,2790
6.1187499,2060
6.1212499000000005,612
6.123749900000001,22
6.1262499,1089
6.128749900000001,2388
6.1312499,2856
6.133749900000001,2642
6.1362499,1596
6.1387499000000005,267
6.141249900000001,215
6.1437499,1611
6.146249900000001,2634
6.1487499,2853
6.151249900000001,2394
6.1537499,1065
6.156249900000001,49
6.1587499,594
6.1612499000000005,2060
6.163749900000001,2798
6.1662499,2792
6.168749900000001,2046
6.1712499,601
6.173749900000001,25
6.1762499,1110
6.178749900000001,2400
6.1812499,2855
6.1837499000000005,2634
6.186249900000001,1572
6.1887499,249
6.191249900000001,207
6.1937499,1611
6.196249900000001,2634
6.1987499,2853
6.2012499000000005,2392
6.203749900000001,1057
6.2062499,46
6.208749900000001,604
6.2112499,2065
6.213749900000001,2790
6.2162499,2786
6.218749900000001,2043
6.2212499,597
6.2237499000000005,29
6.226249900000001,1113
6.2287499,2399
6.231249900000001,2852
6.2337499,2621
6.236249900000001,1561
6.2387499,246
6.241249900000001,227
6.2437499,1637
6.2462499000000005,2642
6.248749900000001,2842
6.2512499,2368
6.253749900000001,1029
6.2562499,35
6.258749900000001,610
6.2612499,2068
6.2637499000000005,2789
6.266249900000001,2774
6.2687499,2020
6.271249900000001,578
6.2737499,25
6.276249900000001,1118
6.2787499,2399
6.281249900000001,2847
6.2837499,2616
6.2862499000000005,1542
6.288749900000001,238
6.2912499,228
6.293749900000001,1638
6.2962499,2642
6.298749900000001,2845
6.3012499,2378
6.303749900000001,1028
6.3062499,38
6.3087499000000005,623
6.311249900000001,2073
6.3137499,2786
6.316249900000001,2766
6.3187499,1909
6.321249900000001,486
6.3237499,59
6.3262499000000005,1139
6.328749900000001,2413
6.3312499,2853
6.333749900000001,2663
6.3362499,1617
6.338749900000001,309
6.3412499,291
6.343749900000001,1683
6.3462499,2657
6.3487499000000005,2839
6.351249900000001,2359
6.3537499,1011
6.356249900000001,37
6.3587499,639
6.361249900000001,2094
6.3637499,2802
6.366249900000001,2777
6.3687499,2002
6.3712499000000005,563
6.373749900000001,41
6.3762499,1163
6.378749900000001,2429
6.3812499,2858
6.383749900000001,2616
6.3862499,1533
6.3887499000000005,235
6.391249900000001,251
6.3937499,1667
6.396249900000001,2655
6.3987499,2848
6.401249900000001,2360
6.4037499,1003
6.406249900000001,33
6.4087499,646
6.4112499000000005,2091
6.413749900000001,2790
6.4162499,2760
6.418749900000001,1988
6.4212499,552
6.423749900000001,40
6.4262499,1174
6.428749900000001,2433
6.4312499,2860
6.4337499000000005,2608
6.436249900000001,1513
6.4387499,222
6.441249900000001,251
6.4437499,1672
6.446249900000001,2655
6.4487499,2845
6.4512499000000005,2354
6.453749900000001,997
6.4562499,40
6.458749900000001,668
6.4612499,2114
6.463749900000001,2805
6.4662499,2768
6.468749900000001,1985
6.4712499,546
6.4737499000000005,38
6.476249900000001,1177
6.4787499,2434
6.481249900000001,2856
6.4837499,2602
6.486249900000001,1496
6.4887499,212
6.491249900000001,261
6.4937499,1685
6.4962499000000005,2658
6.498749900000001,2839
6.5012499,2341
6.503749900000001,974
6.5062499,29
6.508749900000001,671
6.5112499,2117
6.5137499000000005,2803
6.516249900000001,2761
6.5187499,1965
6.521249900000001,530
6.5237499,38
6.526249900000001,1195
6.5287499,2450
6.531249900000001,2868
6.5337499,2607
6.5362499000000005,1492
6.538749900000001,212
6.5412499,275
6.543749900000001,1704
6.5462499,2674
6.548749900000001,2852
6.5512499,2347
6.553749900000001,971
6.5562499,30
6.5587499000000005,683
6.561249900000001,2126
6.5637499,2810
6.566249900000001,2768
6.5687499,1964
6.571249900000001,530
6.5737499,46
6.5762499000000005,1206
6.578749900000001,2455
6.5812499,2869
6.583749900000001,2602
6.5862499,1480
6.588749900000001,204
6.5912499,281
6.593749900000001,1719
6.5962499,2681
6.5987499000000005,2848
6.601249900000001,2338
6.6037499,939
6.606249900000001,0
6.6087499,636
6.611249900000001,2088
6.6137499,2777
6.616249900000001,2747
6.6187499,1954
6.6212499000000005,530
6.623749900000001,64
6.6262499,1237
6.628749900000001,2470
6.6312499,2871
6.633749900000001,2595
6.6362499,1463
6.6387499000000005,196
6.641249900000001,293
6.6437499,1732
6.646249900000001,2684
6.6487499,2845
6.651249900000001,2318
6.6537499,941
6.656249900000001,24
6.6587499,713
6.6612499000000005,2160
6.663749900000001,2826
6.6662499,2768
6.668749900000001,1944
6.6712499,505
6.673749900000001,56
6.6762499,1247
6.678749900000001,2476
6.6812499,2876
6.6837499000000005,2594
6.686249900000001,1451
6.6887499,191
6.691249900000001,302
6.6937499,1743
6.696249900000001,2692
6.6987499,2848
6.7012499000000005,2317
6.703749900000001,926
6.7062499,20
6.708749900000001,725
6.7112499,2162
6.713749900000001,2821
6.7162499,2760
6.718749900000001,1932
6.7212499,501
6.7237499000000005,101
6.726249900000001,1377
6.7287499,2533
6.731249900000001,2864
6.7337499,2576
6.736249900000001,1427
6.7387499,178
6.741249900000001,307
6.7437499,1753
6.7462499000000005,2695
6.748749900000001,2844
6.7512499,2309
6.753749900000001,915
6.7562499,20
6.758749900000001,741
6.7612499,2173
6.7637499000000005,2821
6.766249900000001,2752
6.7687499,1915
6.771249900000001,488
6.7737499,61
6.776249900000001,1264
6.7787499,2483
6.781249900000001,2868
6.7837499,2576
6.7862499000000005,1422
6.788749900000001,177
6.7912499,317
6.793749900000001,1761
6.7962499,2695
6.798749900000001,2842
6.8012499,2304
6.803749900000001,907
6.8062499,24
6.8087499000000005,755
6.811249900000001,2183
6.8137499,2823
6.816249900000001,2747
6.8187499,1907
6.821249900000001,486
6.8237499,75
6.8262499000000005,1282
6.828749900000001,2484
6.8312499,2860
6.833749900000001,2562
6.8362499,1400
6.838749900000001,167
6.8412499,327
6.843749900000001,1780
6.8462499,2703
6.8487499000000005,2842
6.851249900000001,2297
6.8537499,894
6.856249900000001,20
6.8587499,766
6.861249900000001,2191
6.8637499,2827
6.866249900000001,2747
6.8687499,1893
6.8712499000000005,472
6.873749900000001,78
6.8762499,1348
6.878749900000001,2578
6.8812499,2937
6.883749900000001,2607
6.8862499,1409
6.8887499000000005,162
6.891249900000001,330
6.8937499,1777
6.896249900000001,2694
6.8987499,2829
6.901249900000001,2271
6.9037499,868
6.906249900000001,8
6.9087499,768
6.9112499000000005,2196
6.913749900000001,2824
6.9162499,2737
6.918749900000001,1877
6.9212499,454
6.923749900000001,70
6.9262499,1305
6.928749900000001,2500
6.9312499,2863
6.9337499000000005,2550
6.936249900000001,1374
6.9387499,151
6.941249900000001,343
6.9437499,1798
6.946249900000001,2705
6.9487499,2832
6.9512499000000005,2267
6.953749900000001,858
6.9562499,12
6.958749900000001,792
6.9612499,2210
6.963749900000001,2832
6.9662499,2737
6.968749900000001,1865
6.9712499,446
6.9737499000000005,74
6.976249900000001,1313
6.9787499,2499
6.981249900000001,2861
6.9837499,2542
6.986249900000001,1359
6.9887499,151
6.991249900000001,364
6.9937499,1817
6.9962499000000005,2718
6.998749900000001,2839
7.0012499,2263
7.003749900000001,850
7.0062499,11
7.008749900000001,800
7.0112499,2215
7.0137499000000005,2831
7.016249900000001,2736
7.0187499,1857
7.021249900000001,436
7.0237499,75
7.026249900000001,1327
7.0287499,2508
7.031249900000001,2866
7.0337499,2542
7.0362499000000005,1348
7.038749900000001,141
7.0412499,368
7.043749900000001,1830
7.0462499,2723
7.048749900000001,2837
7.0512499,2259
7.053749900000001,839
7.0562499,9
7.0587499000000005,816
7.061249900000001,2230
7.0637499,2835
7.066249900000001,2732
7.0687499,1840
7.071249900000001,427
7.0737499,85
7.0762499000000005,1351
7.078749900000001,2526
7.0812499,2873
7.083749900000001,2537
7.0862499,1329
7.088749900000001,130
7.0912499,375
7.093749900000001,1843
7.0962499,2732
7.0987499000000005,2839
7.101249900000001,2254
7.1037499,826
7.106249900000001,4
7.1087499,823
7.111249900000001,2234
7.1137499,2842
7.116249900000001,2734
7.1187499,1827
7.1212499000000005,412
7.123749900000001,85
7.1262499,1484
7.128749900000001,2584
7.1312499,2869
7.133749900000001,2531
7.1362499,1316
7.1387499000000005,125
7.141249900000001,386
7.1437499,1851
7.146249900000001,2708
7.1487499,2752
7.151249900000001,2157
7.1537499,754
7.156249900000001,0
7.1587499,833
7.1612499000000005,2246
7.163749900000001,2845
7.1662499,2731
7.168749900000001,1820
7.1712499,409
7.173749900000001,91
7.1762499,1371
7.178749900000001,2528
7.1812499,2860
7.1837499000000005,2523
7.186249900000001,1306
7.1887499,122
7.191249900000001,393
7.1937499,1856
7.196249900000001,2728
7.1987499,2824
7.2012499000000005,2213
7.203749900000001,789
7.2062499,3
7.208749900000001,852
7.2112499,2255
7.213749900000001,2844
7.2162499,2721
7.218749900000001,1801
7.2212499,389
7.2237499000000005,87
7.226249900000001,1382
7.2287499,2536
7.231249900000001,2866
7.2337499,2510
7.236249900000001,1285
7.2387499,112
7.241249900000001,402
7.2437499,1869
7.2462499000000005,2739
7.248749900000001,2829
7.2512499,2213
7.253749900000001,784
7.2562499,6
7.258749900000001,871
7.2612499,2263
7.2637499000000005,2842
7.266249900000001,2713
7.2687499,1786
7.271249900000001,380
7.2737499,96
7.276249900000001,1405
7.2787499,2552
7.281249900000001,2873
7.2837499,2510
7.2862499000000005,1276
7.288749900000001,111
7.2912499,420
7.293749900000001,1890
7.2962499,2745
7.298749900000001,2827
7.3012499,2204
7.303749900000001,771
7.3062499,4
7.3087499000000005,889
7.311249900000001,2276
7.3137499,2844
7.316249900000001,2708
7.3187499,1775
7.321249900000001,372
7.3237499,107
7.3262499000000005,1421
7.328749900000001,2553
7.3312499,2863
7.333749900000001,2492
7.3362499,1250
7.338749900000001,101
7.3412499,433
7.343749900000001,1911
7.3462499,2753
7.3487499000000005,2824
7.351249900000001,2189
7.3537499,747
7.356249900000001,0
7.3587499,894
7.361249900000001,2281
7.3637499,2847
7.366249900000001,2711
7.3687499,1761
7.3712499000000005,360
7.373749900000001,112
7.3762499,1435
7.378749900000001,2565
7.3812499,2869
7.383749900000001,2491
7.3862499,1235
7.3887499000000005,91
7.391249900000001,439
7.3937499,1919
7.396249900000001,2760
7.3987499,2827
7.401249900000001,2184
7.4037499,741
7.406249900000001,0
7.4087499,908
7.4112499000000005,2294
7.413749900000001,2852
7.4162499,2702
7.418749900000001,1783
7.4212499,423
7.423749900000001,185
7.4262499,1493
7.428749900000001,2592
7.4312499,2871
7.4337499000000005,2479
7.436249900000001,1216
7.4387499,75
7.441249900000001,438
7.4437499,1912
7.446249900000001,2748
7.4487499,2816
7.4512499000000005,2168
7.453749900000001,729
7.4562499,6
7.458749900000001,934
7.4612499,2307
7.463749900000001,2852
7.4662499,2699
7.468749900000001,1733
7.4712499,344
7.4737499000000005,124
7.476249900000001,1466
7.4787499,2578
7.481249900000001,2869
7.4837499,2475
7.486249900000001,1206
7.4887499,82
7.491249900000001,465
7.4937499,1938
7.4962499000000005,2760
7.498749900000001,2816
7.5012499,2159
7.503749900000001,717
7.5062499,1
7.508749900000001,939
7.5112499,2313
7.5137499000000005,2856
7.516249900000001,2697
7.5187499,1722
7.521249900000001,338
7.5237499,133
7.526249900000001,1484
7.5287499,2586
7.531249900000001,2866
7.5337499,2408
7.5362499000000005,1073
7.538749900000001,75
7.5412499,476
7.543749900000001,1954
7.5462499,2771
7.548749900000001,2823
7.5512499,2155
7.553749900000001,713
7.5562499,11
7.5587499000000005,973
7.561249900000001,2326
7.5637499,2853
7.566249900000001,2689
7.5687499,1708
7.571249900000001,335
7.5737499,143
7.5762499000000005,1500
7.578749900000001,2597
7.5812499,2874
7.583749900000001,2470
7.5862499,1181
7.588749900000001,69
7.5912499,481
7.593749900000001,1964
7.5962499,2774
7.5987499000000005,2824
7.601249900000001,2151
7.6037499,699
7.606249900000001,3
7.6087499,978
7.611249900000001,2336
7.6137499,2861
7.616249900000001,2684
7.6187499,1683
7.6212499000000005,304
7.623749900000001,135
7.6262499,1496
7.628749900000001,2592
7.6312499,2869
7.633749900000001,2458
7.6362499,1171
7.6387499000000005,75
7.641249900000001,505
7.6437499,1980
7.646249900000001,2779
7.6487499,2818
7.651249900000001,2126
7.6537499,675
7.656249900000001,1
7.6587499,989
7.6612499000000005,2344
7.663749900000001,2866
7.6662499,2687
7.668749900000001,1675
7.6712499,301
7.673749900000001,151
7.6762499,1525
7.678749900000001,2607
7.6812499,2871
7.6837499000000005,2457
7.686249900000001,1153
7.6887499,49
7.691249900000001,447
7.6937499,1909
7.696249900000001,2721
7.6987499,2781
7.7012499000000005,2107
7.703749900000001,670
7.7062499,12
7.708749900000001,1023
7.7112499,2368
7.713749900000001,2873
7.7162499,2676
7.718749900000001,1656
7.7212499,294
7.7237499000000005,164
7.726249900000001,1548
7.7287499,2618
7.731249900000001,2874
7.7337499,2447
7.736249900000001,1137
7.7387499,64
7.741249900000001,536
7.743749900000001,2012
7.7462499000000005,2789
7.748749900000001,2811
7.7512499,2102
7.753749900000001,652
7.7562499,8
7.758749900000001,1031
7.7612499,2367
7.7637499000000005,2863
7.766249900000001,2671
7.7687499,1646
7.771249900000001,291
7.7737499,177
7.776249900000001,1564
7.7787499,2621
7.781249900000001,2866
7.7837499,2425
7.7862499000000005,1108
7.788749900000001,49
7.7912499,546
7.793749900000001,2015
7.7962499,2784
7.798749900000001,2805
7.8012499,2088
7.803749900000001,639
7.806249900000001,8
7.8087499000000005,1047
7.811249900000001,2370
7.8137499,2858
7.816249900000001,2658
7.8187499,1629
7.821249900000001,278
7.8237499,182
7.8262499000000005,1579
7.828749900000001,2623
7.8312499,2856
7.833749900000001,2408
7.8362499,1089
7.838749900000001,43
7.8412499,555
7.843749900000001,2033
7.8462499,2797
7.8487499000000005,2802
7.851249900000001,2078
7.8537499,628
7.856249900000001,14
7.8587499,1066
7.861249900000001,2384
7.8637499,2868
7.866249900000001,2661
7.868749900000001,1617
7.8712499000000005,275
7.873749900000001,196
7.8762499,1592
7.878749900000001,2632
7.8812499,2864
7.883749900000001,2407
7.8862499,1074
7.8887499000000005,40
7.891249900000001,567
7.8937499,2039
7.896249900000001,2797
7.8987499,2802
7.901249900000001,2068
7.9037499,620
7.906249900000001,20
7.9087499,1082
7.9112499000000005,2394
7.913749900000001,2871
7.9162499,2655
7.918749900000001,1596
7.9212499,259
7.923749900000001,203
7.9262499,1609
7.928749900000001,2645
7.931249900000001,2871
7.9337499000000005,2410
7.936249900000001,950
7.9387499,22
7.941249900000001,700
7.9437499,2056
7.946249900000001,2797
7.9487499,2794
7.9512499000000005,2048
7.953749900000001,601
7.9562499,16
7.958749900000001,1094
7.9612499,2441
7.963749900000001,2943
7.9662499,2718
7.968749900000001,1630
7.9712499,277
7.9737499000000005,217
7.976249900000001,1614
7.9787499,2632
7.981249900000001,2848
7.9837499,2383
7.986249900000001,1044
7.9887499,37
7.991249900000001,605
7.993749900000001,2073
7.9962499000000005,2803
7.998749900000001,2790
8.0012499,2031
8.003749899999999,586
8.0062499,19
8.0087499,1115
8.0112499,2407
8.013749899999999,2863
8.0162499,2636
8.0187499,1564
8.021249899999999,246
8.0237499,223
8.0262499,1637
8.0287499,2644
8.031249899999999,2852
8.0337499,2373
8.0362499,1026
8.0387499,35
8.0412499,618
8.0437499,2077
8.0462499,2798
8.048749899999999,2784
8.0512499,2019
8.0537499,572
8.0562499,25
8.0587499,1140
8.0612499,2418
8.0637499,2864
8.066249899999999,2631
8.0687499,1546
8.0712499,233
8.0737499,232
8.076249899999999,1650
8.0787499,2653
8.0812499,2855
8.083749899999999,2370
8.0862499,1015
8.0887499,32
8.0912499,630
8.093749899999999,2089
8.0962499,2805
8.0987499,2782
8.1012499,2004
8.1037499,555
8.1062499,20
8.1087499,1150
8.111249899999999,2429
8.1137499,2874
8.1162499,2628
8.1187499,1527
8.1212499,220
8.1237499,238
8.1262499,1659
8.128749899999999,2653
8.1312499,2850
8.1337499,2359
8.1362499,997
8.138749899999999,25
8.1412499,642
8.1437499,2101
8.146249899999999,2802
8.1487499,2773
8.1512499,1988
8.1537499,549
8.156249899999999,30
8.1587499,1166
8.1612499,2434
8.1637499,2868
8.1662499,2608
8.1687499,1504
8.1712499,211
8.173749899999999,246
8.1762499,1674
8.1787499,2665
8.1812499,2853
8.1837499,2355
8.1862499,976
8.1887499,17
8.191249899999999,659
8.1937499,2117
8.1962499,2815
8.1987499,2776
8.201249899999999,1977
8.2037499,530
8.2062499,24
8.208749899999999,1179
8.2112499,2446
8.2137499,2873
8.2162499,2610
8.218749899999999,1492
8.2212499,203
8.2237499,257
8.2262499,1691
8.2287499,2673
8.2312499,2839
8.2337499,2281
8.236249899999999,899
8.2387499,0
8.2412499,660
8.2437499,2122
8.2462499,2819
8.2487499,2779
8.2512499,1970
8.253749899999999,526
8.2562499,38
8.2587499,1203
8.2612499,2455
8.263749899999999,2873
8.2662499,2600
8.2687499,1469
8.271249899999999,188
8.2737499,269
8.2762499,1712
8.2787499,2686
8.281249899999999,2856
8.2837499,2336
8.2862499,955
8.2887499,22
8.2912499,699
8.2937499,2146
8.2962499,2827
8.298749899999999,2776
8.3012499,1957
8.3037499,512
8.3062499,35
8.3087499,1214
8.3112499,2460
8.3137499,2869
8.316249899999999,2595
8.3187499,1456
8.3212499,186
8.3237499,280
8.326249899999999,1728
8.3287499,2689
8.3312499,2839
8.333749899999999,2244
8.3362499,821
8.3387499,17
8.3412499,713
8.343749899999999,2155
8.3462499,2824
8.3487499,2765
8.3512499,1938
8.3537499,499
8.3562499,43
8.3587499,1234
8.361249899999999,2463
8.3637499,2866
8.3662499,2582
8.3687499,1435
8.3712499,182
8.3737499,296
8.3762499,1740
8.378749899999999,2690
8.3812499,2848
8.3837499,2317
8.3862499,921
8.388749899999999,20
8.3912499,733
8.3937499,2168
8.396249899999999,2826
8.3987499,2760
8.4012499,1923
8.4037499,493
8.406249899999999,53
8.4087499,1248
8.4112499,2473
8.4137499,2864
8.4162499,2571
8.4187499,1421
8.4212499,172
8.423749899999999,307
8.4262499,1761
8.4287499,2694
8.4312499,2840
8.4337499,2302
8.4362499,900
8.4387499,8
8.441249899999999,734
8.4437499,2172
8.4462499,2823
8.4487499,2748
8.451249899999999,1906
8.4537499,475
8.4562499,53
8.458749899999999,1269
8.4612499,2481
8.4637499,2864
8.4662499,2568
8.468749899999999,1403
8.4712499,159
8.4737499,309
8.4762499,1766
8.4787499,2697
8.4812499,2839
8.4837499,2289
8.486249899999999,884
8.4887499,6
8.4912499,749
8.4937499,2188
8.4962499,2834
8.4987499,2755
8.5012499,1898
8.503749899999999,509
8.5062499,132
8.5087499,1351
8.5112499,2533
8.513749899999999,2879
8.5162499,2558
8.5187499,1382
8.521249899999999,149
8.5237499,319
8.5262499,1782
8.5287499,2707
8.531249899999999,2845
8.5337499,2283
8.5362499,873
8.5387499,8
8.5412499,766
8.5437499,2194
8.5462499,2832
8.548749899999999,2747
8.5512499,1883
8.5537499,454
8.5562499,59
8.5587499,1303
8.5612499,2500
8.5637499,2869
8.566249899999999,2560
8.5687499,1380
8.5712499,149
8.5737499,325
8.5762499,1782
8.5787499,2700
8.5812499,2834
8.583749899999999,2275
8.5862499,865
8.5887499,8
8.5912499,784
8.593749899999999,2212
8.5962499,2835
8.5987499,2742
8.6012499,1870
8.6037499,447
8.6062499,66
8.6087499,1310
8.611249899999999,2500
8.6137499,2861
8.6162499,2539
8.6187499,1356
8.6212499,138
8.6237499,341
8.6262499,1806
8.628749899999999,2718
8.6312499,2839
8.6337499,2268
8.6362499,855
8.6387499,11
8.6412499,799
8.6437499,2222
8.646249899999999,2839
8.6487499,2742
8.6512499,1861
8.6537499,438
8.656249899999999,74
8.6587499,1329
8.6612499,2515
8.6637499,2873
8.6662499,2547
8.6687499,1353
8.6712499,141
8.673749899999999,356
8.6762499,1814
8.6787499,2711
8.6812499,2831
8.6837499,2257
8.6862499,845
8.6887499,9
8.691249899999999,808
8.6937499,2220
8.6962499,2831
8.6987499,2729
8.7012499,1844
8.7037499,433
8.7062499,85
8.708749899999999,1342
8.7112499,2513
8.7137499,2861
8.7162499,2539
8.718749899999999,1342
8.7212499,143
8.7237499,377
8.7262499,1838
8.7287499,2724
8.7312499,2815
8.7337499,2160
8.736249899999999,725
8.7387499,9
8.7412499,821
8.7437499,2225
8.7462499,2826
8.7487499,2724
8.7512499,1836
8.753749899999999,428
8.7562499,95
8.7587499,1359
8.7612499,2518
8.7637499,2855
8.7662499,2528
8.7687499,1329
8.771249899999999,135
8.7737499,362
8.7762499,1769
8.7787499,2642
8.781249899999999,2768
8.7837499,2207
8.7862499,810
8.7887499,12
8.7912499,845
8.7937499,2244
8.7962499,2832
8.798749899999999,2723
8.8012499,1824
8.8037499,417
8.8062499,95
8.8087499,1366
8.8112499,2518
8.8137499,2853
8.816249899999999,2516
8.8187499,1316
8.8212499,133
8.8237499,396
8.8262499,1851
8.8287499,2718
8.8312499,2813
8.833749899999999,2222
8.8362499,808
8.8387499,14
8.8412499,862
8.843749899999999,2251
8.8462499,2829
8.8487499,2707
8.8512499,1804
8.8537499,401
8.8562499,91
8.8587499,1377
8.861249899999999,2524
8.8637499,2856
8.8662499,2516
8.8687499,1305
8.8712499,130
8.8737499,412
8.8762499,1877
8.878749899999999,2736
8.8812499,2829
8.8837499,2228
8.8862499,807
8.8887499,17
8.8912499,871
8.8937499,2255
8.896249899999999,2832
8.8987499,2711
8.9012499,1795
8.9037499,399
8.906249899999999,109
8.9087499,1403
8.9112499,2539
8.9137499,2856
8.9162499,2512
8.9187499,1285
8.9212499,119
8.923749899999999,412
8.9262499,1875
8.9287499,2732
8.9312499,2821
8.9337499,2212
8.9362499,791
8.9387499,20
8.941249899999999,891
8.9437499,2275
8.9462499,2844
8.9487499,2715
8.9512499,1793
8.9537499,401
8.9562499,119
8.958749899999999,1421
8.9612499,2555
8.9637499,2866
8.9662499,2512
8.968749899999999,1276
8.9712499,116
8.9737499,427
8.9762499,1894
8.9787499,2740
8.9812499,2823
8.9837499,2201
8.986249899999999,773
8.9887499,14
8.9912499,900
8.9937499,2281
8.9962499,2847
8.9987499,2713
9.0012499,1780
9.003749899999999,388
9.0062499,125
9.0087499,1440
9.0112499,2560
9.0137499,2860
9.0162499,2495
9.0187499,1247
9.021249899999999,95
9.0237499,428
9.0262499,1909
9.0287499,2748
9.031249899999999,2823
9.0337499,2194
9.0362499,762
9.0387499,12
9.0412499,915
9.0437499,2292
9.0462499,2890
9.048749899999999,2779
9.0512499,1827
9.0537499,412
9.0562499,141
9.0587499,1440
9.0612499,2547
9.0637499,2847
9.066249899999999,2476
9.0687499,1237
9.0712499,101
9.0737499,449
9.0762499,1912
9.0787499,2739
9.0812499,2806
9.083749899999999,2175
9.0862499,749
9.0887499,14
9.0912499,928
9.093749899999999,2291
9.0962499,2834
9.0987499,2686
9.1012499,1740
9.1037499,360
9.1062499,130
9.1087499,1459
9.111249899999999,2563
9.1137499,2856
9.1162499,2479
9.1187499,1227
9.1212499,96
9.1237499,459
9.1262499,1927
9.128749899999999,2748
9.1312499,2789
9.1337499,2077
9.1362499,636
9.1387499,11
9.1412499,939
9.1437499,2299
9.146249899999999,2837
9.1487499,2682
9.1512499,1724
9.1537499,351
9.156249899999999,140
9.1587499,1475
9.1612499,2573
9.1637499,2856
9.1662499,2463
9.1687499,1205
9.1712499,87
9.173749899999999,472
9.1762499,1943
9.1787499,2757
9.1812499,2810
9.1837499,2154
9.1862499,717
9.1887499,6
9.191249899999999,950
9.1937499,2309
9.1962499,2844
9.1987499,2686
9.2012499,1714
9.2037499,341
9.2062499,145
9.208749899999999,1493
9.2112499,2587
9.2137499,2868
9.2162499,2475
9.218749899999999,1203
9.2212499,88
9.2237499,483
9.2262499,1951
9.2287499,2757
9.2312499,2805
9.2337499,2144
9.236249899999999,707
9.2387499,6
9.2412499,966
9.2437499,2321
9.2462499,2850
9.2487499,2687
9.2512499,1703
9.253749899999999,331
9.2562499,149
9.2587499,1506
9.2612499,2591
9.2637499,2866
9.2662499,2473
9.2687499,1185
9.271249899999999,78
9.2737499,491
9.2762499,1962
9.2787499,2755
9.281249899999999,2797
9.2837499,2126
9.2862499,692
9.2887499,9
9.2912499,982
9.2937499,2333
9.2962499,2852
9.298749899999999,2681
9.3012499,1688
9.3037499,323
9.3062499,153
9.3087499,1513
9.3112499,2595
9.3137499,2861
9.316249899999999,2434
9.3187499,1100
9.3212499,11
9.3237499,475
9.3262499,1954
9.3287499,2755
9.3312499,2802
9.333749899999999,2126
9.3362499,691
9.3387499,22
9.3412499,1011
9.343749899999999,2355
9.3462499,2864
9.3487499,2682
9.3512499,1677
9.3537499,312
9.3562499,157
9.3587499,1524
9.361249899999999,2595
9.3637499,2858
9.3662499,2444
9.3687499,1156
9.3712499,74
9.3737499,522
9.3762499,1991
9.378749899999999,2771
9.3812499,2800
9.3837499,2112
9.3862499,667
9.3887499,8
9.3912499,1013
9.3937499,2350
9.396249899999999,2861
9.3987499,2676
9.4012499,1667
9.4037499,317
9.406249899999999,178
9.4087499,1553
9.4112499,2616
9.4137499,2869
9.4162499,2442
9.4187499,1139
9.4212499,66
9.423749899999999,531
9.4262499,1999
9.4287499,2777
9.4312499,2803
9.4337499,2112
9.4362499,665
9.4387499,12
9.441249899999999,1023
9.4437499,2352
9.4462499,2855
9.4487499,2665
9.4512499,1654
9.4537499,307
9.4562499,183
9.458749899999999,1559
9.4612499,2608
9.4637499,2853
9.4662499,2423
9.468749899999999,1121
9.4712499,62
9.4737499,547
9.4762499,2019
9.4787499,2781
9.4812499,2800
9.4837499,2094
9.486249899999999,654
9.4887499,20
9.4912499,1045
9.4937499,2363
9.4962499,2855
9.4987499,2661
9.5012499,1640
9.503749899999999,294
9.5062499,183
9.5087499,1563
9.5112499,2605
9.5137499,2844
9.5162499,2417
9.5187499,1111
9.521249899999999,66
9.5237499,560
9.5262499,2030
9.5287499,2813
9.531249899999999,2779
9.5337499,1994
9.5362499,647
9.5387499,24
9.5412499,1061
9.5437499,2373
9.5462499,2855
9.548749899999999,2653
9.5512499,1627
9.5537499,286
9.5562499,190
9.5587499,1577
9.5612499,2611
9.5637499,2845
9.566249899999999,2410
9.5687499,1098
9.5712499,62
9.5737499,573
9.5762499,2038
9.5787499,2786
9.5812499,2789
9.583749899999999,2072
9.5862499,631
9.5887499,70
9.5912499,1153
9.593749899999999,2454
9.5962499,2900
9.5987499,2663
9.6012499,1606
9.6037499,261
9.6062499,180
9.6087499,1575
9.611249899999999,2615
9.6137499,2850
9.6162499,2412
9.6187499,1092
9.6212499,58
9.6237499,581
9.6262499,2043
9.628749899999999,2784
9.6312499,2787
9.6337499,2065
9.6362499,618
9.6387499,20
9.6412499,1086
9.6437499,2388
9.646249899999999,2860
9.6487499,2644
9.6512499,1596
9.6537499,272
9.656249899999999,209
9.6587499,1606
9.6612499,2632
9.6637499,2852
9.6662499,2399
9.6687499,1071
9.6712499,46
9.673749899999999,586
9.6762499,2054
9.6787499,2790
9.6812499,2790
9.6837499,2064
9.6862499,613
9.6887499,25
9.691249899999999,1098
9.6937499,2392
9.6962499,2853
9.6987499,2631
9.7012499,1574
9.7037499,252
9.7062499,207
9.708749899999999,1612
9.7112499,2632
9.7137499,2852
9.7162499,2394
9.718749899999999,1065
9.7212499,51
9.7237499,601
9.7262499,2062
9.7287499,2787
9.7312499,2779
9.7337499,2039
9.736249899999999,599
9.7387499,24
9.7412499,1108
9.7437499,2402
9.7462499,2860
9.7487499,2636
9.7512499,1574
9.753749899999999,256
9.7562499,225
9.7587499,1633
9.7612499,2645
9.7637499,2855
9.7662499,2394
9.7687499,1053
9.771249899999999,45
9.7737499,610
9.7762499,2072
9.7787499,2794
9.781249899999999,2782
9.7837499,2031
9.7862499,586
9.7887499,24
9.7912499,1121
9.7937499,2407
9.7962499,2855
9.798749899999999,2624
9.8012499,1559
9.8037499,249
9.8062499,230
9.8087499,1637
9.8112499,2644
9.8137499,2852
9.816249899999999,2383
9.8187499,1040
9.8212499,46
9.8237499,621
9.8262499,2077
9.8287499,2797
9.8312499,2781
9.833749899999999,2025
9.8362499,583
9.8387499,33
9.8412499,1137
9.843749899999999,2415
9.8462499,2858
9.8487499,2623
9.8512499,1553
9.8537499,244
9.8562499,238
9.8587499,1632
9.861249899999999,2574
9.8637499,2771
9.8662499,2315
9.8687499,995
9.8712499,38
9.8737499,644
9.8762499,2096
9.878749899999999,2800
9.8812499,2773
9.8837499,2007
9.8862499,572
9.8887499,35
9.8912499,1156
9.8937499,2426
9.896249899999999,2861
9.8987499,2616
9.9012499,1532
9.9037499,233
9.906249899999999,243
9.9087499,1659
9.9112499,2653
9.9137499,2847
9.9162499,2362
9.9187499,1008
9.9212499,38
9.923749899999999,647
9.9262499,2101
9.9287499,2824
9.9312499,2740
9.9337499,2001
9.9362499,562
9.9387499,35
9.941249899999999,1165
9.9437499,2428
9.9462499,2861
9.9487499,2618
9.9512499,1533
9.9537499,248
9.9562499,264
9.958749899999999,1677
9.9612499,2660
9.9637499,2847
9.9662499,2359
9.968749899999999,1005
9.9712499,41
9.9737499,659
9.9762499,2104
9.9787499,2795
9.9812499,2758
9.9837499,1978
9.986249899999999,544
9.9887499,37
9.9912499,1173
9.9937499,2429
9.9962499,2856
9.9987499,2603
10.0012499,1509
10.003749899999999,228
10.0062499,265
10.0087499,1690
10.0112499,2666
10.0137499,2848
10.0162499,2347
10.0187499,982
10.021249899999999,30
10.0237499,663
10.0262499,2109
10.0287499,2797
10.031249899999999,2761
10.0337499,1980
10.0362499,547
10.0387499,49
10.0412499,1189
10.0437499,2437
10.0462499,2858
10.048749899999999,2600
10.0512499,1495
10.0537499,217
10.0562499,269
10.0587499,1695
10.0612499,2661
10.0637499,2840
10.066249899999999,2339
10.0687499,978
10.0712499,38
10.0737499,688
10.0762499,2125
10.0787499,2806
10.0812499,2765
10.083749899999999,1973
10.0862499,544
10.0887499,58
10.0912499,1213
10.093749899999999,2452
10.0962499,2858
10.0987499,2595
10.1012499,1482
10.1037499,214
10.1062499,285
10.1087499,1714
10.111249899999999,2673
10.1137499,2842
10.1162499,2333
10.1187499,968
10.1212499,35
10.1237499,691
10.1262499,2128
10.128749899999999,2803
10.1312499,2802
10.1337499,2031
10.1362499,591
10.1387499,91
10.1412499,1232
10.1437499,2450
10.146249899999999,2847
10.1487499,2579
10.1512499,1464
10.1537499,203
10.156249899999999,290
10.1587499,1719
10.1612499,2674
10.1637499,2842
10.1662499,2330
10.1687499,957
10.1712499,33
10.173749899999999,704
10.1762499,2138
10.1787499,2805
10.1812499,2752
10.1837499,1949
10.1862499,515
10.1887499,49
10.191249899999999,1229
10.1937499,2454
10.1962499,2853
10.1987499,2578
10.2012499,1453
10.2037499,199
10.2062499,294
10.208749899999999,1728
10.2112499,2682
10.2137499,2844
10.2162499,2320
10.218749899999999,937
10.2212499,24
10.2237499,712
10.2262499,2146
10.2287499,2806
10.2312499,2748
10.2337499,1935
10.236249899999999,509
10.2387499,56
10.2412499,1237
10.2437499,2463
10.2462499,2861
10.2487499,2581
10.2512499,1446
10.253749899999999,190
10.2562499,299
10.2587499,1733
10.2612499,2676
10.2637499,2831
10.2662499,2304
10.2687499,924
10.271249899999999,22
10.2737499,725
10.2762499,2157
10.2787499,2815
10.281249899999999,2752
10.2837499,1928
10.2862499,502
10.2887499,64
10.2912499,1256
10.2937499,2473
10.2962499,2861
10.298749899999999,2574
10.3012499,1432
10.3037499,186
10.3062499,309
10.3087499,1753
10.3112499,2684
10.3137499,2831
10.316249899999999,2300
10.3187499,916
10.3212499,22
10.3237499,737
10.3262499,2165
10.3287499,2832
10.3312499,2716
10.333749899999999,1809
10.3362499,489
10.3387499,62
10.3412499,1266
10.343749899999999,2476
10.3462499,2853
10.3487499,2563
10.3512499,1411
10.3537499,170
10.3562499,307
10.3587499,1753
10.361249899999999,2674
10.3637499,2821
10.3662499,2286
10.3687499,895
10.3712499,11
10.3737499,747
10.3762499,2176
10.378749899999999,2819
10.3812499,2745
10.3837499,1906
10.3862499,478
10.3887499,66
10.3912499,1285
10.3937499,2489
10.396249899999999,2861
10.3987499,2560
10.4012499,1380
10.4037499,96
10.406249899999999,270
10.4087499,1717
10.4112499,2655
10.4137499,2811
10.4162499,2280
10.4187499,900
10.4212499,38
10.423749899999999,783
10.4262499,2199
10.4287499,2827
10.4312499,2740
10.4337499,1888
10.4362499,462
10.4387499,62
10.441249899999999,1289
10.4437499,2487
10.4462499,2860
10.4487499,2553
10.4512499,1388
10.4537499,165
10.4562499,339
10.458749899999999,1790
10.4612499,2707
10.4637499,2839
10.4662499,2284
10.468749899999999,886
10.4712499,25
10.4737499,784
10.4762499,2197
10.4787499,2816
10.4812499,2731
10.4837499,1877
10.486249899999999,460
10.4887499,74
10.4912499,1308
10.4937499,2499
10.4962499,2860
10.4987499,2550
10.5012499,1379
10.503749899999999,162
10.5062499,354
10.5087499,1804
10.5112499,2710
10.5137499,2832
10.5162499,2271
10.5187499,874
10.521249899999999,25
10.5237499,792
10.5262499,2202
10.5287499,2818
10.531249899999999,2728
10.5337499,1864
10.5362499,451
10.5387499,75
10.5412499,1319
10.5437499,2505
10.5462499,2863
10.548749899999999,2545
10.5512499,1361
10.5537499,153
10.5562499,352
10.5587499,1807
10.5612499,2705
10.5637499,2826
10.566249899999999,2257
10.5687499,852
10.5712499,12
10.5737499,800
10.5762499,2212
10.5787499,2824
10.5812499,2731
10.583749899999999,1857
10.5862499,444
10.5887499,85
10.5912499,1337
10.593749899999999,2512
10.5962499,2863
10.5987499,2545
10.6012499,1355
10.6037499,153
10.6062499,372
10.6087499,1827
10.611249899999999,2713
10.6137499,2824
10.6162499,2249
10.6187499,844
10.6212499,14
10.6237499,812
10.6262499,2215
10.628749899999999,2823
10.6312499,2723
10.6337499,1844
10.6362499,438
10.6387499,91
10.6412499,1356
10.6437499,2521
10.646249899999999,2866
10.6487499,2537
10.6512499,1343
10.6537499,146
10.656249899999999,380
10.6587499,1835
10.6612499,2719
10.6637499,2827
10.6662499,2244
10.6687499,828
10.6712499,11
10.673749899999999,874
10.6762499,2305
10.6787499,2897
10.6812499,2765
10.6837499,1849
10.6862499,431
10.6887499,88
10.691249899999999,1350
10.6937499,2512
10.6962499,2856
10.6987499,2523
10.7012499,1322
10.7037499,140
10.7062499,393
10.708749899999999,1854
10.7112499,2732
10.7137499,2837
10.7162499,2247
10.718749899999999,825
10.7212499,14
10.7237499,847
10.7262499,2244
10.7287499,2847
10.7312499,2682
10.7337499,1711
10.736249899999999,418
10.7387499,99
10.7412499,1379
10.7437499,2531
10.7462499,2863
10.7487499,2518
10.7512499,1308
10.753749899999999,130
10.7562499,394
10.7587499,1857
10.7612499,2726
10.7637499,2821
10.7662499,2220
10.7687499,802
10.771249899999999,9
10.7737499,849
10.7762499,2246
10.7787499,2834
10.781249899999999,2716
10.7837499,1807
10.7862499,409
10.7887499,103
10.7912499,1388
10.7937499,2533
10.7962499,2856
10.798749899999999,2515
10.8012499,1298
10.8037499,130
10.8062499,409
10.8087499,1873
10.8112499,2728
10.8137499,2816
10.816249899999999,2209
10.8187499,787
10.8212499,6
10.8237499,863
10.8262499,2259
10.8287499,2839
10.8312499,2716
10.833749899999999,1796
10.8362499,394
10.8387499,98
10.8412499,1390
10.843749899999999,2533
10.8462499,2861
10.8487499,2513
10.8512499,1287
10.8537499,122
10.8562499,415
10.8587499,1883
10.861249899999999,2736
10.8637499,2818
10.8662499,2205
10.8687499,783
10.8712499,8
10.8737499,873
10.8762499,2259
10.878749899999999,2835
10.8812499,2711
10.8837499,1785
10.8862499,389
10.8887499,104
10.8912499,1411
10.8937499,2549
10.896249899999999,2866
10.8987499,2502
10.9012499,1268
10.9037499,107
10.906249899999999,415
10.9087499,1885
10.9112499,2734
10.9137499,2815
10.9162499,2197
10.9187499,771
10.9212499,9
10.923749899999999,894
10.9262499,2278
10.9287499,2842
10.9312499,2707
10.9337499,1774
10.9362499,385
10.9387499,119
10.941249899999999,1430
10.9437499,2537
10.9462499,2795
10.9487499,2425
10.9512499,1210
10.9537499,90
10.9562499,436
10.958749899999999,1914
10.9612499,2758
10.9637499,2835
10.9662499,2207
10.968749899999999,776
10.9712499,16
10.9737499,912
10.9762499,2286
10.9787499,2847
10.9812499,2708
10.9837499,1770
10.986249899999999,380
10.9887499,120
10.9912499,1435
10.9937499,2558
10.9962499,2866
10.9987499,2494
11.0012499,1255
11.003749899999999,112
11.0062499,446
11.0087499,1911
11.0112499,2747
11.0137499,2818
11.0162499,2189
11.0187499,760
11.021249899999999,16
11.0237499,924
11.0262499,2294
11.0287499,2844
11.031249899999999,2699
11.0337499,1754
11.0362499,372
11.0387499,128
11.0412499,1451
11.0437499,2563
11.0462499,2861
11.048749899999999,2489
11.0512499,1240
11.0537499,104
11.0562499,452
11.0587499,1925
11.0612499,2757
11.0637499,2821
11.066249899999999,2178
11.0687499,744
11.0712499,8
11.0737499,924
11.0762499,2299
11.0787499,2850
11.0812499,2702
11.083749899999999,1745
11.0862499,362
11.0887499,132
11.0912499,1463
11.093749899999999,2570
11.0962499,2866
11.0987499,2489
11.1012499,1231
11.1037499,101
11.1062499,462
11.1087499,1928
11.111249899999999,2750
11.1137499,2808
11.1162499,2162
11.1187499,734
11.1212499,11
11.1237499,936
11.1262499,2302
11.128749899999999,2845
11.1312499,2692
11.1337499,1617
11.1362499,286
11.1387499,204
11.1412499,1482
11.1437499,2584
11.146249899999999,2869
11.1487499,2476
11.1512499,1213
11.1537499,95
11.156249899999999,475
11.1587499,1943
11.1612499,2757
11.1637499,2810
11.1662499,2157
11.1687499,725
11.1712499,16
11.173749899999999,960
11.1762499,2321
11.1787499,2855
11.1812499,2697
11.1837499,1728
11.1862499,354
11.1887499,151
11.191249899999999,1496
11.1937499,2591
11.1962499,2869
11.1987499,2473
11.2012499,1205
11.2037499,93
11.2062499,488
11.208749899999999,1959
11.2112499,2768
11.2137499,2816
11.2162499,2202
11.218749899999999,796
11.2212499,87
11.2237499,1021
11.2262499,2346
11.2287499,2848
11.2312499,2673
11.2337499,1691
11.236249899999999,323
11.2387499,145
11.2412499,1498
11.2437499,2592
11.2462499,2869
11.2487499,2468
11.2512499,1194
11.253749899999999,87
11.2562499,496
11.2587499,1964
11.2612499,2760
11.2637499,2802
11.2662499,2138
11.2687499,697
11.271249899999999,12
11.2737499,986
11.2762499,2331
11.2787499,2848
11.281249899999999,2678
11.2837499,1696
11.2862499,330
11.2887499,159
11.2912499,1519
11.2937499,2600
11.2962499,2864
11.298749899999999,2457
11.3012499,1174
11.3037499,77
11.3062499,501
11.3087499,1975
11.3112499,2771
11.3137499,2811
11.316249899999999,2131
11.3187499,689
11.3212499,9
11.3237499,989
11.3262499,2334
11.3287499,2847
11.3312499,2674
11.333749899999999,1683
11.3362499,319
11.3387499,161
11.3412499,1529
11.343749899999999,2603
11.3462499,2864
11.3487499,2455
11.3512499,1165
11.3537499,77
11.3562499,514
11.3587499,1983
11.361249899999999,2766
11.3637499,2797
11.3662499,2115
11.3687499,679
11.3712499,16
11.3737499,1008
11.3762499,2350
11.378749899999999,2858
11.3812499,2674
11.3837499,1669
11.3862499,306
11.3887499,161
11.3912499,1535
11.3937499,2602
11.396249899999999,2860
11.3987499,2439
11.4012499,1147
11.4037499,67
11.406249899999999,520
11.4087499,1988
11.4112499,2774
11.4137499,2806
11.4162499,2114
11.4187499,670
11.4212499,8
11.423749899999999,1003
11.4262499,2341
11.4287499,2848
11.4312499,2665
11.4337499,1658
11.4362499,299
11.4387499,165
11.441249899999999,1543
11.4437499,2613
11.4462499,2868
11.4487499,2442
11.4512499,1139
11.4537499,66
11.4562499,531
11.458749899999999,2002
11.4612499,2781
11.4637499,2806
11.4662499,2109
11.468749899999999,660
11.4712499,11
11.4737499,1024
11.4762499,2354
11.4787499,2850
11.4812499,2658
11.4837499,1645
11.486249899999999,272
11.4887499,119
11.4912499,1482
11.4937499,2552
11.4962499,2824
11.4987499,2418
11.5012499,1131
11.503749899999999,72
11.5062499,547
11.5087499,2010
11.5112499,2774
11.5137499,2790
11.5162499,2089
11.5187499,650
11.521249899999999,9
11.5237499,1040
11.5262499,2367
11.5287499,2856
11.531249899999999,2658
11.5337499,1638
11.5362499,230
11.5387499,256
11.5412499,1677
11.5437499,2621
11.5462499,2863
11.548749899999999,2425
11.5512499,1115
11.5537499,58
11.5562499,547
11.5587499,2014
11.5612499,2774
11.5637499,2790
11.566249899999999,2080
11.5687499,641
11.5712499,16
11.5737499,1048
11.5762499,2370
11.5787499,2858
11.5812499,2657
11.583749899999999,1629
11.5862499,281
11.5887499,182
11.5912499,1574
11.593749899999999,2623
11.5962499,2861
11.5987499,2426
11.6012499,1103
11.6037499,51
11.6062499,557
11.6087499,2030
11.611249899999999,2786
11.6137499,2794
11.6162499,2073
11.6187499,633
11.6212499,16
11.6237499,1060
11.6262499,2378
11.628749899999999,2864
11.6312499,2663
11.6337499,1627
11.6362499,285
11.6387499,198
11.6412499,1593
11.6437499,2629
11.646249899999999,2861
11.6487499,2417
11.6512499,1090
11.6537499,51
11.656249899999999,567
11.6587499,2031
11.6612499,2782
11.6637499,2794
11.6662499,2072
11.6687499,630
11.6712499,22
11.673749899999999,1074
11.6762499,2381
11.6787499,2855
11.6812499,2644
11.6837499,1601
11.6862499,264
11.6887499,191
11.691249899999999,1595
11.6937499,2624
11.6962499,2850
11.6987499,2400
11.7012499,1077
11.7037499,51
11.7062499,584
11.708749899999999,2049
11.7112499,2795
11.7137499,2795
11.7162499,2064
11.718749899999999,617
11.7212499,24
11.7237499,1092
11.7262499,2392
11.7287499,2858
11.7312499,2640
11.7337499,1595
11.736249899999999,264
11.7387499,207
11.7412499,1611
11.7437499,2631
11.7462499,2848
11.7487499,2392
11.7512499,1065
11.753749899999999,49
11.7562499,592
11.7587499,2104
11.7612499,2866
11.7637499,2848
11.7662499,2086
11.7687499,617
11.771249899999999,17
11.7737499,1089
11.7762499,2381
11.7787499,2844
11.781249899999999,2629
11.7837499,1579
11.7862499,256
11.7887499,212
11.7912499,1616
11.7937499,2631
11.7962499,2845
11.798749899999999,2384
11.8012499,1047
11.8037499,38
11.8062499,589
11.8087499,2052
11.8112499,2790
11.8137499,2786
11.816249899999999,2044
11.8187499,597
11.8212499,24
11.8237499,1110
11.8262499,2397
11.8287499,2853
11.8312499,2629
11.833749899999999,1569
11.8362499,254
11.8387499,222
11.8412499,1632
11.843749899999999,2644
11.8462499,2855
11.8487499,2388
11.8512499,1044
11.8537499,41
11.8562499,617
11.8587499,2077
11.861249899999999,2798
11.8637499,2781
11.8662499,2022
11.8687499,575
11.8712499,12
11.8737499,1113
11.8762499,2400
11.878749899999999,2856
11.8812499,2626
11.8837499,1553
11.8862499,240
11.8887499,225
11.8912499,1645
11.8937499,2652
11.896249899999999,2860
11.8987499,2384
11.9012499,1034
11.9037499,38
11.906249899999999,620
11.9087499,2077
11.9112499,2792
11.9137499,2774
11.9162499,2009
11.9187499,565
11.9212499,20
11.923749899999999,1135
11.9262499,2417
11.9287499,2863
11.9312499,2624
11.9337499,1542
11.9362499,235
11.9387499,238
11.941249899999999,1766
11.9437499,2692
11.9462499,2837
11.9487499,2368
11.9512499,1016
11.9537499,37
11.9562499,639
11.958749899999999,2093
11.9612499,2803
11.9637499,2777
11.9662499,2007
11.9687499,565
11.9712499,32
11.9737499,1155
11.9762499,2425
11.9787499,2860
11.9812499,2613
11.9837499,1529
11.986249899999999,232
11.9887499,248
11.9912499,1667
11.9937499,2657
11.9962499,2852
11.9987499,2365
12.0012499,1008
12.003749899999999,37
12.0062499,647
12.0087499,2102
12.0112499,2813
12.0137499,2789
12.0162499,2017
12.0187499,568
12.021249899999999,40
12.0237499,1166
12.0262499,2428
12.0287499,2829
12.0312499,2533
12.0337499,1438
12.0362499,174
12.0387499,236
12.0412499,1675
12.0437499,2676
12.0462499,2866
12.048749899999999,2368
12.0512499,1005
12.0537499,40
12.0562499,667
12.0587499,2115
12.0612499,2816
12.0637499,2781
12.066249899999999,1996
12.0687499,547
12.0712499,32
12.0737499,1177
12.0762499,2434
12.0787499,2860
12.0812499,2605
12.083749899999999,1503
12.0862499,222
12.0887499,264
12.0912499,1685
12.0937499,2660
12.0962499,2842
12.0987499,2341
12.1012499,978
12.1037499,27
12.1062499,668
12.1087499,2123
12.111249899999999,2813
12.1137499,2771
12.1162499,1981
12.1187499,543
12.1212499,43
12.1237499,1189
12.1262499,2444
12.128749899999999,2861
12.1312499,2599
12.1337499,1490
12.1362499,211
12.1387499,267
12.1412499,1698
12.1437499,2668
12.146249899999999,2842
12.1487499,2336
12.1512499,968
12.1537499,25
12.1562499,676
12.1587499,2122
12.1612499,2806
12.1637499,2768
12.1662499,1972
12.1687499,538
12.1712499,49
12.173749899999999,1206
12.1762499,2455
12.1787499,2869
12.1812499,2605
12.1837499,1488
12.1862499,214
12.1887499,278
12.191249899999999,1712
12.1937499,2676
12.1962499,2852
12.1987499,2341
12.2012499,970
12.2037499,30
12.2062499,694
12.208749899999999,2138
12.2112499,2816
12.2137499,2766
12.2162499,1961
12.2187499,525
12.2212499,48
12.2237499,1214
12.2262499,2458
12.2287499,2869
12.2312499,2603
12.2337499,1482
12.236249899999999,207
12.2387499,285
12.2412499,1722
12.2437499,2684
12.2462499,2853
12.2487499,2339
12.2512499,960
12.253749899999999,33
12.2562499,715
12.2587499,2155
12.2612499,2824
12.2637499,2771
12.2662499,1956
12.2687499,515
12.271249899999999,46
12.2737499,1229
12.2762499,2463
12.2787499,2866
12.2812499,2591
12.2837499,1463
12.2862499,201
12.2887499,301
12.2912499,1738
12.2937499,2690
12.2962499,2848
12.298749899999999,2323
12.3012499,994
12.3037499,99
12.3062499,781
12.3087499,2196
12.3112499,2835
12.3137499,2760
12.316249899999999,1930
12.3187499,493
12.3212499,40
12.3237499,1231
12.3262499,2463
12.3287499,2860
12.3312499,2578
12.333749899999999,1437
12.3362499,183
12.3387499,294
12.3412499,1737
12.3437499,2682
12.3462499,2837
12.3487499,2231
12.3512499,813
12.3537499,3
12.3562499,713
12.3587499,2152
12.361249899999999,2815
12.3637499,2753
12.3662499,1925
12.3687499,493
12.3712499,49
12.3737499,1248
12.3762499,2471
12.378749899999999,2864
12.3812499,2581
12.3837499,1434
12.3862499,178
12.3887499,304
12.3912499,1757
12.3937499,2694
12.396249899999999,2839
12.3987499,2300
12.4012499,907
12.4037499,11
12.4062499,729
12.4087499,2167
12.4112499,2824
12.4137499,2758
12.4162499,1922
12.4187499,491
12.4212499,62
12.423749899999999,1268
12.4262499,2484
12.4287499,2866
12.4312499,2566
12.4337499,1411
12.4362499,174
12.4387499,310
12.441249899999999,1762
12.4437499,2694
12.4462499,2840
12.4487499,2299
12.4512499,905
12.4537499,17
12.4562499,747
12.458749899999999,2176
12.4612499,2821
12.4637499,2747
12.4662499,1906
12.4687499,476
12.4712499,54
12.4737499,1269
12.4762499,2479
12.4787499,2858
12.4812499,2563
12.4837499,1403
12.486249899999999,165
12.4887499,320
12.4912499,1772
12.4937499,2700
12.4962499,2844
12.4987499,2297
12.5012499,897
12.503749899999999,17
12.5062499,760
12.5087499,2183
12.5112499,2823
12.5137499,2744
12.5162499,1898
12.5187499,475
12.521249899999999,67
12.5237499,1292
12.5262499,2492
12.5287499,2868
12.5312499,2562
12.5337499,1395
12.5362499,162
12.5387499,328
12.5412499,1778
12.5437499,2700
12.5462499,2835
12.548749899999999,2281
12.5512499,881
12.5537499,16
12.5562499,771
12.5587499,2196
12.5612499,2829
12.5637499,2745
12.566249899999999,1885
12.5687499,462
12.5712499,33
12.5737499,1219
12.5762499,2420
12.5787499,2810
12.5812499,2524
12.583749899999999,1372
12.5862499,162
12.5887499,351
12.5912499,1807
12.5937499,2721
12.5962499,2844
12.5987499,2276
12.6012499,865
12.6037499,9
12.6062499,784
12.6087499,2204
12.611249899999999,2831
12.6137499,2742
12.6162499,1875
12.6187499,454
12.6212499,72
12.6237499,1311
12.6262499,2504
12.628749899999999,2868
12.6312499,2553
12.6337499,1377
12.6362499,161
12.6387499,352
12.6412499,1809
12.6437499,2711
12.646249899999999,2835
12.6487499,2265
12.6512499,860
12.6537499,16
12.6562499,791
12.6587499,2204
12.6612499,2829
12.6637499,2737
12.6662499,1859
12.6687499,449
12.6712499,80
12.673749899999999,1326
12.6762499,2510
12.6787499,2873
12.6812499,2553
12.6837499,1363
12.6862499,146
12.6887499,354
12.691249899999999,1819
12.6937499,2719
12.6962499,2839
12.6987499,2263
12.7012499,849
12.7037499,12
12.7062499,802
12.708749899999999,2213
12.7112499,2826
12.7137499,2728
12.7162499,1849
12.7187499,436
12.7212499,87
12.7237499,1350
12.7262499,2521
12.7287499,2866
12.7312499,2539
12.7337499,1342
12.736249899999999,136
12.7387499,356
12.7412499,1815
12.7437499,2711
12.7462499,2829
12.7487499,2252
12.7512499,842
12.753749899999999,11
12.7562499,815
12.7587499,2305
12.7612499,2852
12.7637499,2703
12.7662499,1856
12.7687499,435
12.771249899999999,87
12.7737499,1355
12.7762499,2523
12.7787499,2866
12.7812499,2531
12.7837499,1334
12.7862499,135
12.7887499,368
12.7912499,1832
12.7937499,2724
12.7962499,2840
12.798749899999999,2257
12.8012499,839
12.8037499,17
12.8062499,836
12.8087499,2244
12.8112499,2848
12.8137499,2739
12.816249899999999,1838
12.8187499,427
12.8212499,91
12.8237499,1361
12.8262499,2529
12.8287499,2873
12.8312499,2534
12.833749899999999,1329
12.8362499,136
12.8387499,386
12.8412499,1849
12.8437499,2792
12.8462499,2914
12.8487499,2307
12.8512499,860
12.8537499,22
12.8562499,833
12.8587499,2228
12.861249899999999,2826
12.8637499,2719
12.8662499,1820
12.8687499,414
12.8712499,90
12.8737499,1368
12.8762499,2529
12.878749899999999,2869
12.8812499,2524
12.8837499,1316
12.8862499,128
12.8887499,389
12.8912499,1856
12.8937499,2731
12.896249899999999,2832
12.8987499,2234
12.9012499,810
12.9037499,6
12.9062499,842
12.9087499,2246
12.9112499,2840
12.9137499,2726
12.9162499,1814
12.9187499,399
12.9212499,83
12.923749899999999,1369
12.9262499,2528
12.9287499,2863
12.9312499,2520
12.9337499,1308
12.9362499,127
12.9387499,394
12.941249899999999,1861
12.9437499,2731
12.9462499,2826
12.9487499,2220
12.9512499,800
12.9537499,6
12.9562499,847
12.958749899999999,2246
12.9612499,2834
12.9637499,2716
12.9662499,1803
12.9687499,399
12.9712499,96
12.9737499,1387
12.9762499,2536
12.9787499,2860
12.9812499,2512
12.9837499,1287
12.986249899999999,116
12.9887499,401
12.9912499,1872
12.9937499,2732
12.9962499,2818
12.9987499,2209
13.0012499,781
13.003749899999999,3
13.0062499,865
13.0087499,2263
13.0112499,2842
13.0137499,2715
13.0162499,1793
13.0187499,393
13.021249899999999,99
13.0237499,1397
13.0262499,2541
13.0287499,2863
13.0312499,2505
13.0337499,1281
13.0362499,119
13.0387499,417
13.0412499,1888
13.0437499,2742
13.0462499,2827
13.048749899999999,2212
13.0512499,781
13.0537499,4
13.0562499,878
13.0587499,2267
13.0612499,2842
13.0637499,2710
13.066249899999999,1783
13.0687499,388
13.0712499,109
13.0737499,1405
13.0762499,2542
13.0787499,2863
13.0812499,2505
13.083749899999999,1276
13.0862499,119
13.0887499,423
13.0912499,1886
13.0937499,2734
13.0962499,2816
13.0987499,2193
13.1012499,766
13.1037499,4
13.1062499,892
13.1087499,2276
13.111249899999999,2839
13.1137499,2658
13.1162499,1695
13.1187499,315
13.1212499,85
13.1237499,1408
13.1262499,2549
13.128749899999999,2866
13.1312499,2504
13.1337499,1266
13.1362499,112
13.1387499,435
13.1412499,1902
13.1437499,2742
13.146249899999999,2818
13.1487499,2194
13.1512499,766
13.1537499,16
13.1562499,908
13.1587499,2284
13.1612499,2844
13.1637499,2707
13.1662499,1653
13.1687499,307
13.1712499,185
13.173749899999999,1443
13.1762499,2562
13.1787499,2866
13.1812499,2500
13.1837499,1255
13.1862499,112
13.1887499,454
13.191249899999999,1925
13.1937499,2748
13.1962499,2815
13.1987499,2181
13.2012499,746
13.2037499,4
13.2062499,910
13.208749899999999,2284
13.2112499,2840
13.2137499,2703
13.2162499,1761
13.2187499,380
13.2212499,140
13.2237499,1459
13.2262499,2565
13.2287499,2856
13.2312499,2483
13.2337499,1232
13.236249899999999,99
13.2387499,457
13.2412499,1928
13.2437499,2757
13.2462499,2819
13.2487499,2170
13.2512499,739
13.253749899999999,9
13.2562499,932
13.2587499,2300
13.2612499,2847
13.2637499,2700
13.2662499,1743
13.2687499,364
13.271249899999999,138
13.2737499,1469
13.2762499,2573
13.2787499,2863
13.2812499,2473
13.2837499,1213
13.2862499,87
13.2887499,459
13.2912499,1930
13.2937499,2753
13.2962499,2815
13.298749899999999,2165
13.3012499,728
13.3037499,12
13.3062499,957
13.3087499,2317
13.3112499,2848
13.3137499,2690
13.316249899999999,1724
13.3187499,344
13.3212499,136
13.3237499,1479
13.3262499,2581
13.3287499,2869
13.3312499,2478
13.333749899999999,1214
13.3362499,98
13.3387499,483
13.3412499,1944
13.3437499,2755
13.3462499,2805
13.3487499,2146
13.3512499,715
13.3537499,12
13.3562499,957
13.3587499,2315
13.361249899999999,2848
13.3637499,2686
13.3662499,1708
13.3687499,339
13.3712499,146
13.3737499,1493
13.3762499,2582
13.378749899999999,2856
13.3812499,2460
13.3837499,1200
13.3862499,151
13.3887499,570
13.3912499,2023
13.3937499,2797
13.396249899999999,2818
13.3987499,2139
13.4012499,696
13.4037499,3
13.4062499,961
13.4087499,2313
13.4112499,2842
13.4137499,2682
13.4162499,1704
13.4187499,341
13.4212499,156
13.423749899999999,1503
13.4262499,2584
13.4287499,2856
13.4312499,2454
13.4337499,1176
13.4362499,80
13.4387499,501
13.441249899999999,1972
13.4437499,2766
13.4462499,2806
13.4487499,2138
13.4512499,699
13.4537499,9
13.4562499,979
13.458749899999999,2325
13.4612499,2845
13.4637499,2676
13.4662499,1688
13.4687499,327
13.4712499,165
13.4737499,1525
13.4762499,2599
13.4787499,2860
13.4812499,2450
13.4837499,1161
13.486249899999999,69
13.4887499,501
13.4912499,1970
13.4937499,2760
13.4962499,2800
13.4987499,2123
13.5012499,684
13.503749899999999,16
13.5062499,1005
13.5087499,2344
13.5112499,2850
13.5137499,2665
13.5162499,1661
13.5187499,302
13.521249899999999,153
13.5237499,1521
13.5262499,2594
13.5287499,2855
13.5312499,2437
13.5337499,1145
13.5362499,64
13.5387499,517
13.5412499,1990
13.5437499,2769
13.5462499,2802
13.548749899999999,2114
13.5512499,670
13.5537499,14
13.5562499,1018
13.5587499,2347
13.5612499,2850
13.5637499,2661
13.566249899999999,1654
13.5687499,306
13.5712499,248
13.5737499,1662
13.5762499,2652
13.5787499,2850
13.5812499,2421
13.583749899999999,1123
13.5862499,61
13.5887499,534
13.5912499,2006
13.5937499,2779
13.5962499,2795
13.5987499,2094
13.6012499,652
13.6037499,14
13.6062499,1039
13.6087499,2363
13.611249899999999,2856
13.6137499,2660
13.6162499,1641
13.6187499,291
13.6212499,174
13.6237499,1558
13.6262499,2611
13.628749899999999,2856
13.6312499,2425
13.6337499,1118
13.6362499,59
13.6387499,547
13.6412499,2019
13.6437499,2781
13.646249899999999,2795
13.6487499,2089
13.6512499,646
13.6537499,16
13.6562499,999
13.6587499,2289
13.6612499,2784
13.6637499,2610
13.6662499,1614
13.6687499,290
13.6712499,196
13.673749899999999,1579
13.6762499,2624
13.6787499,2861
13.6812499,2423
13.6837499,1111
13.6862499,67
13.6887499,565
13.691249899999999,2030
13.6937499,2782
13.6962499,2790
13.6987499,2078
13.7012499,636
13.7037499,19
13.7062499,1061
13.708749899999999,2378
13.7112499,2856
13.7137499,2650
13.7162499,1614
13.7187499,277
13.7212499,190
13.7237499,1583
13.7262499,2624
13.7287499,2858
13.7312499,2418
13.7337499,1094
13.736249899999999,49
13.7387499,567
13.7412499,2036
13.7437499,2790
13.7462499,2798
13.7487499,2073
13.7512499,625
13.753749899999999,17
13.7562499,1073
13.7587499,2379
13.7612499,2856
13.7637499,2649
13.7662499,1611
13.7687499,277
13.771249899999999,199
13.7737499,1593
13.7762499,2628
13.7787499,2856
13.7812499,2404
13.7837499,1077
13.7862499,49
13.7887499,584
13.7912499,2051
13.7937499,2797
13.7962499,2798
13.798749899999999,2068
13.8012499,623
13.8037499,30
13.8062499,1097
13.8087499,2394
13.8112499,2861
13.8137499,2645
13.816249899999999,1593
13.8187499,269
13.8212499,212
13.8237499,1611
13.8262499,2637
13.8287499,2858
13.8312499,2397
13.833749899999999,1066
13.8362499,46
13.8387499,589
13.8412499,2052
13.8437499,2790
13.8462499,2789
13.8487499,2052
13.8512499,612
13.8537499,30
13.8562499,1098
13.8587499,2394
13.861249899999999,2855
13.8637499,2629
13.8662499,1575
13.8687499,262
13.8712499,220
13.8737499,1621
13.8762499,2632
13.878749899999999,2845
13.8812499,2381
13.8837499,1050
13.8862499,46
13.8887499,610
13.8912499,2072
13.8937499,2798
13.896249899999999,2789
13.8987499,2044
13.9012499,597
13.9037499,25
13.9062499,1111
13.9087499,2400
13.9112499,2860
13.9137499,2631
13.9162499,1569
13.9187499,257
13.9212499,233
13.923749899999999,1638
13.9262499,2653
13.9287499,2916
13.9312499,2463
13.9337499,1106
13.9362499,83
13.9387499,630
13.941249899999999,2068
13.9437499,2774
13.9462499,2758
13.9487499,2010
13.9512499,578
13.9537499,20
13.9562499,1118
13.958749899999999,2402
13.9612499,2855
13.9637499,2621
13.9662499,1551
13.9687499,248
13.9712499,236
13.9737499,1757
13.9762499,2692
13.9787499,2837
13.9812499,2376
13.9837499,1032
13.986249899999999,43
13.9887499,633
13.9912499,2088
13.9937499,2803
13.9962499,2782
13.9987499,2019
14.0012499,578
14.003749899999999,33
14.0062499,1139
14.0087499,2412
14.0112499,2856
14.0137499,2620
14.0162499,1542
14.0187499,243
14.021249899999999,241
14.0237499,1654
14.0262499,2653
14.0287499,2852
14.0312499,2370
14.0337499,1019
14.0362499,40
14.0387499,639
14.0412499,2091
14.0437499,2800
14.0462499,2777
14.048749899999999,2012
14.0512499,573
14.0537499,40
14.0562499,1156
14.0587499,2417
14.0612499,2852
14.0637499,2610
14.066249899999999,1530
14.0687499,238
14.0712499,252
14.0737499,1662
14.0762499,2650
14.0787499,2842
14.0812499,2357
14.083749899999999,1010
14.0862499,43
14.0887499,652
14.0912499,2097
14.0937499,2795
14.0962499,2768
14.0987499,1999
14.1012499,565
14.1037499,45
14.1062499,1171
14.1087499,2426
14.111249899999999,2853
14.1137499,2602
14.1162499,1509
14.1187499,227
14.1212499,256
14.1237499,1675
14.1262499,2660
14.128749899999999,2852
14.1312499,2359
14.1337499,1005
14.1362499,46
14.1387499,671
14.1412499,2115
14.1437499,2803
14.146249899999999,2768
14.1487499,1993
14.1512499,559
14.1537499,48
14.1562499,1182
14.1587499,2434
14.1612499,2860
14.1637499,2608
14.1662499,1513
14.1687499,228
14.1712499,261
14.173749899999999,1685
14.1762499,2665
14.1787499,2850
14.1812499,2352
14.1837499,992
14.1862499,38
14.1887499,670
14.191249899999999,2112
14.1937499,2798
14.1962499,2761
14.1987499,1927
14.2012499,460
14.2037499,0
14.2062499,1144
14.208749899999999,2412
14.2112499,2852
14.2137499,2607
14.2162499,1509
14.2187499,232
14.2212499,283
14.2237499,1708
14.2262499,2674
14.2287499,2850
14.2312499,2344
14.2337499,976
14.236249899999999,32
14.2387499,681
14.2412499,2130
14.2437499,2815
14.2462499,2774
14.2487499,1980
14.2512499,538
14.253749899999999,46
14.2562499,1202
14.2587499,2452
14.2612499,2869
14.2637499,2607
14.2662499,1492
14.2687499,215
14.271249899999999,278
14.2737499,1714
14.2762499,2687
14.2787499,2860
14.2812499,2347
14.2837499,973
14.2862499,33
14.2887499,696
14.2912499,2143
14.2937499,2823
14.2962499,2777
14.298749899999999,1972
14.3012499,533
14.3037499,49
14.3062499,1213
14.3087499,2454
14.3112499,2861
14.3137499,2592
14.316249899999999,1472
14.3187499,203
14.3212499,285
14.3237499,1719
14.3262499,2681
14.3287499,2847
14.3312499,2328
14.333749899999999,953
14.3362499,24
14.3387499,699
14.3412499,2146
14.3437499,2818
14.3462499,2768
14.3487499,1956
14.3512499,518
14.3537499,49
14.3562499,1229
14.3587499,2463
14.361249899999999,2866
14.3637499,2594
14.3662499,1466
14.3687499,194
14.3712499,288
14.3737499,1727
14.3762499,2682
14.378749899999999,2834
14.3812499,2254
14.3837499,842
14.3862499,33
14.3887499,715
14.3912499,2151
14.3937499,2811
14.396249899999999,2757
14.3987499,1948
14.4012499,517
14.4037499,56
14.4062499,1231
14.4087499,2462
14.4112499,2861
14.4137499,2581
14.4162499,1446
14.4187499,188
14.4212499,296
14.423749899999999,1741
14.4262499,2699
14.4287499,2858
14.4312499,2331
14.4337499,939
14.4362499,19
14.4387499,713
14.441249899999999,2152
14.4437499,2816
14.4462499,2761
14.4487499,1941
14.4512499,505
14.4537499,51
14.4562499,1237
14.458749899999999,2468
14.4612499,2861
14.4637499,2581
14.4662499,1446
14.4687499,209
14.4712499,375
14.4737499,1828
14.4762499,2750
14.4787499,2874
14.4812499,2321
14.4837499,918
14.486249899999999,9
14.4887499,712
14.4912499,2157
14.4937499,2824
14.4962499,2765
14.4987499,1941
14.5012499,504
14.503749899999999,61
14.5062499,1252
14.5087499,2476
14.5112499,2866
14.5137499,2578
14.5162499,1435
14.5187499,183
14.521249899999999,304
14.5237499,1749
14.5262499,2695
14.5287499,2850
14.5312499,2313
14.5337499,918
14.5362499,14
14.5387499,725
14.5412499,2160
14.5437499,2816
14.5462499,2750
14.548749899999999,1920
14.5512499,493
14.5537499,61
14.5562499,1268
14.5587499,2486
14.5612499,2873
14.5637499,2579
14.566249899999999,1430
14.5687499,178
14.5712499,304
14.5737499,1748
14.5762499,2687
14.5787499,2840
14.5812499,2302
14.583749899999999,910
14.5862499,17
14.5887499,744
14.5912499,2178
14.5937499,2826
14.5962499,2753
14.5987499,1915
14.6012499,485
14.6037499,58
14.6062499,1271
14.6087499,2483
14.611249899999999,2864
14.6137499,2566
14.6162499,1416
14.6187499,175
14.6212499,315
14.6237499,1764
14.6262499,2702
14.628749899999999,2847
14.6312499,2297
14.6337499,899
14.6362499,12
14.6387499,752
14.6412499,2188
14.6437499,2832
14.646249899999999,2758
14.6487499,1914
14.6512499,476
14.6537499,53
14.6562499,1269
14.6587499,2483
14.6612499,2864
14.6637499,2568
14.6662499,1413
14.6687499,174
14.6712499,328
14.673749899999999,1780
14.6762499,2702
14.6787499,2835
14.6812499,2288
14.6837499,883
14.6862499,6
14.6887499,749
14.691249899999999,2178
14.6937499,2815
14.6962499,2737
14.6987499,1890
14.7012499,467
14.7037499,61
14.7062499,1282
14.708749899999999,2487
14.7112499,2864
14.7137499,2558
14.7162499,1392
14.7187499,162
14.7212499,331
14.7237499,1788
14.7262499,2711
14.7287499,2847
14.7312499,2292
14.7337499,881
14.736249899999999,9
14.7387499,763
14.7412499,2131
14.7437499,2747
14.7462499,2676
14.7487499,1844
14.7512499,441
14.753749899999999,59
14.7562499,1301
14.7587499,2505
14.7612499,2876
14.7637499,2565
14.7662499,1387
14.7687499,159
14.771249899999999,338
14.7737499,1793
14.7762499,2708
14.7787499,2837
14.7812499,2275
14.7837499,762
14.7862499,6
14.7887499,902
14.7912499,2207
14.7937499,2837
14.7962499,2748
14.798749899999999,1883
14.8012499,457
14.8037499,69
14.8062499,1310
14.8087499,2502
14.8112499,2869
14.8137499,2555
14.816249899999999,1371
14.8187499,148
14.8212499,338
14.8237499,1795
14.8262499,2705
14.8287499,2834
14.8312499,2265
14.833749899999999,860
14.8362499,12
14.8387499,792
14.8412499,2217
14.8437499,2840
14.8462499,2745
14.8487499,1869
14.8512499,446
14.8537499,72
14.8562499,1327
14.8587499,2508
14.861249899999999,2866
14.8637499,2545
14.8662499,1356
14.8687499,145
14.8712499,351
14.8737499,1809
14.8762499,2715
14.878749899999999,2837
14.8812499,2265
14.8837499,854
14.8862499,9
14.8887499,799
14.8912499,2218
14.8937499,2842
14.896249899999999,2745
14.8987499,1867
14.9012499,441
14.9037499,69
14.9062499,1322
14.9087499,2507
14.9112499,2864
14.9137499,2542
14.9162499,1353
14.9187499,146
14.9212499,357
14.923749899999999,1814
14.9262499,2716
14.9287499,2834
14.9312499,2257
14.9337499,842
14.9362499,11
14.9387499,821
14.941249899999999,2233
14.9437499,2840
14.9462499,2736
14.9487499,1848
14.9512499,428
14.9537499,72
14.9562499,1334
14.958749899999999,2518
14.9612499,2874
14.9637499,2544
14.9662499,1343
14.9687499,140
14.9712499,367
14.9737499,1830
14.9762499,2723
14.9787499,2835
14.9812499,2255
14.9837499,834
14.986249899999999,8
14.9887499,816
14.9912499,2228
14.9937499,2834
14.9962499,2726
14.9987499,1833
15.0012499,425
15.003749899999999,85
15.0062499,1358
15.0087499,2528
15.0112499,2890
15.0137499,2605
15.0162499,1409
15.0187499,194
15.021249899999999,410
15.0237499,1857
15.0262499,2729
15.0287499,2829
15.0312499,2246
15.0337499,823
15.0362499,4
15.0387499,823
15.0412499,2233
15.0437499,2837
15.0462499,2731
15.048749899999999,1836
15.0512499,427
15.0537499,96
15.0562499,1371
15.0587499,2536
15.0612499,2876
15.0637499,2534
15.066249899999999,1324
15.0687499,132
15.0712499,381
15.0737499,1848
15.0762499,2732
15.0787499,2840
15.0812499,2244
15.083749899999999,821
15.0862499,8
15.0887499,841
15.0912499,2244
15.0937499,2844
15.0962499,2731
15.0987499,1830
15.1012499,420
15.1037499,91
15.1062499,1372
15.1087499,2528
15.111249899999999,2860
15.1137499,2515
15.1162499,1305
15.1187499,120
15.1212499,385
15.1237499,1853
15.1262499,2732
15.128749899999999,2832
15.1312499,2231
15.1337499,807
15.1362499,4
15.1387499,844
15.1412499,2246
15.1437499,2840
15.146249899999999,2724
15.1487499,1815
15.1512499,404
15.1537499,83
15.1562499,1368
15.1587499,2523
15.1612499,2860
15.1637499,2515
15.1662499,1300
15.1687499,122
15.1712499,396
15.173749899999999,1862
15.1762499,2736
15.1787499,2829
15.1812499,2225
15.1837499,800
15.1862499,4
15.1887499,971
15.191249899999999,2323
15.1937499,2852
15.1962499,2723
15.1987499,1809
15.2012499,402
15.2037499,101
15.2062499,1397
15.208749899999999,2547
15.2112499,2871
15.2137499,2515
15.2162499,1289
15.2187499,112
15.2212499,399
15.2237499,1870
15.2262499,2739
15.2287499,2832
15.2312499,2220
15.2337499,791
15.236249899999999,8
15.2387499,876
15.2412499,2270
15.2437499,2847
15.2462499,2718
15.2487499,1786
15.2512499,383
15.253749899999999,98
15.2562499,1403
15.2587499,2547
15.2612499,2871
15.2637499,2510
15.2662499,1276
15.2687499,101
15.271249899999999,401
15.2737499,1875
15.2762499,2737
15.2787499,2823
15.2812499,2204
15.2837499,720
15.2862499,0
15.2887499,829
15.2912499,2226
15.2937499,2816
15.2962499,2699
15.298749899999999,1780
15.3012499,388
15.3037499,112
15.3062499,1424
15.3087499,2560
15.3112499,2874
15.3137499,2510
15.316249899999999,1272
15.3187499,111
15.3212499,422
15.3237499,1893
15.3262499,2750
15.3287499,2831
15.3312499,2199
15.333749899999999,765
15.3362499,1
15.3387499,887
15.3412499,2284
15.3437499,2858
15.3462499,2724
15.3487499,1780
15.3512499,378
15.3537499,109
15.3562499,1434
15.3587499,2566
15.361249899999999,2877
15.3637499,2512
15.3662499,1264
15.3687499,103
15.3712499,420
15.3737499,1893
15.3762499,2748
15.378749899999999,2831
15.3812499,2202
15.3837499,765
15.3862499,3
15.3887499,897
15.3912499,2281
15.3937499,2847
15.396249899999999,2710
15.3987499,1770
15.4012499,368
15.4037499,107
15.4062499,1427
15.4087499,2558
15.4112499,2864
15.4137499,2491
15.4162499,1242
15.4187499,91
15.4212499,431
15.4237499,1909
15.4262499,2757
15.4287499,2829
15.4312499,2191
15.4337499,757
15.4362499,6
15.4387499,907
15.441249899999999,2284
15.4437499,2844
15.4462499,2699
15.4487499,1751
15.4512499,365
15.4537499,117
15.4562499,1446
15.458749899999999,2568
15.4612499,2869
15.4637499,2491
15.4662499,1242
15.4687499,101
15.4712499,444
15.4737499,1919
15.4762499,2755
15.4787499,2821
15.4812499,2181
15.4837499,746
15.4862499,4
15.4887499,915
15.4912499,2297
15.4937499,2853
15.4962499,2703
15.4987499,1751
15.5012499,367
15.503749899999999,128
15.5062499,1456
15.5087499,2570
15.5112499,2868
15.5137499,2486
15.5162499,1227
15.5187499,90
15.521249899999999,444
15.5237499,1919
15.5262499,2758
15.5287499,2829
15.5312499,2183
15.5337499,744
15.5362499,8
15.5387499,929
15.5412499,2305
15.5437499,2853
15.5462499,2700
15.5487499,1737
15.5512499,352
15.5537499,145
15.5562499,1530
15.5587499,2645
15.5612499,2919
15.5637499,2513
15.566249899999999,1229
15.5687499,83
15.5712499,441
15.5737499,1917
15.5762499,2748
15.5787499,2811
15.5812499,2159
15.583749899999999,723
15.5862499,1
15.5887499,937
15.5912499,2310
15.5937499,2856
15.5962499,2699
15.5987499,1616
15.6012499,277
15.6037499,193
15.6062499,1479
15.6087499,2579
15.6112499,2863
15.6137499,2479
15.6162499,1218
15.6187499,93
15.6212499,467
15.6237499,1938
15.6262499,2757
15.628749899999999,2819
15.6312499,2164
15.6337499,726
15.6362499,8
15.6387499,947
15.6412499,2313
15.6437499,2855
15.646249899999999,2695
15.6487499,1725
15.6512499,343
15.6537499,133
15.6562499,1474
15.6587499,2578
15.6612499,2864
15.6637499,2471
15.6662499,1203
15.6687499,88
15.6712499,475
15.6737499,1946
15.6762499,2765
15.6787499,2816
15.6812499,2162
15.6837499,720
15.6862499,8
15.6887499,953
15.691249899999999,2320
15.6937499,2855
15.6962499,2692
15.6987499,1711
15.7012499,331
15.7037499,133
15.7062499,1484
15.708749899999999,2584
15.7112499,2866
15.7137499,2468
15.7162499,1194
15.7187499,82
15.7212499,480
15.7237499,1952
15.7262499,2760
15.7287499,2808
15.7312499,2146
15.7337499,704
15.7362499,1
15.7387499,960
15.7412499,2323
15.7437499,2855
15.7462499,2686
15.7487499,1701
15.7512499,328
15.753749899999999,143
15.7562499,1498
15.7587499,2591
15.7612499,2868
15.7637499,2466
15.7662499,1189
15.7687499,82
15.771249899999999,497
15.7737499,1970
15.7762499,2774
15.7787499,2816
15.7812499,2141
15.7837499,702
15.7862499,9
15.7887499,974
15.7912499,2328
15.7937499,2848
15.7962499,2679
15.7987499,1693
15.8012499,328
15.8037499,149
15.8062499,1509
15.8087499,2592
15.8112499,2866
15.8137499,2462
15.816249899999999,1177
15.8187499,78
15.8212499,499
15.8237499,1969
15.8262499,2708
15.8287499,2734
15.8312499,2075
15.833749899999999,663
15.8362499,3
15.8387499,997
15.8412499,2359
15.8437499,2882
15.8462499,2699
15.8487499,1695
15.8512499,320
15.8537499,151
15.8562499,1521
15.8587499,2599
15.8612499,2864
15.8637499,2458
15.8662499,1169
15.8687499,77
15.8712499,507
15.8737499,1977
15.8762499,2773
15.878749899999999,2808
15.8812499,2126
15.8837499,688
15.8862499,11
15.8887499,995
15.8912499,2342
15.8937499,2856
15.896249899999999,2676
15.8987499,1677
15.9012499,314
15.9037499,154
15.9062499,1522
15.9087499,2597
15.9112499,2861
15.9137499,2450
15.9162499,1163
15.9187499,77
15.9212499,517
15.9237499,1986
15.9262499,2777
15.9287499,2811
15.9312499,2123
15.9337499,683
15.9362499,16
15.9387499,1007
15.941249899999999,2350
15.9437499,2864
15.9462499,2679
15.9487499,1670
15.9512499,307
15.9537499,161
15.9562499,1533
15.958749899999999,2607
15.9612499,2871
15.9637499,2450
15.9662499,1153
15.9687499,70
15.9712499,522
15.9737499,1994
15.9762499,2782
15.9787499,2808
15.9812499,2117
15.9837499,667
15.9862499,4
15.9887499,1005
15.9912499,2349
15.9937499,2858
15.9962499,2671
15.9987499,1659
16.0012499,306
16.003749900000003,167
16.0062499,1542
16.0087499,2657
16.011249900000003,2860
16.0137499,2378
16.016249900000002,1139
16.018749900000003,62
16.0212499,525
16.023749900000002,1999
16.0262499,2777
16.0287499,2806
16.031249900000002,2110
16.0337499,663
16.0362499,8
16.038749900000003,1023
16.0412499,2357
16.0437499,2856
16.046249900000003,2660
16.0487499,1645
16.051249900000002,293
16.053749900000003,172
16.0562499,1558
16.058749900000002,2621
16.0612499,2873
16.0637499,2442
16.066249900000003,1134
16.0687499,66
16.0712499,544
16.073749900000003,2010
16.0762499,2782
16.078749900000002,2802
16.081249900000003,2096
16.0837499,657
16.086249900000002,17
16.0887499,1036
16.0912499,2365
16.093749900000002,2863
16.0962499,2695
16.0987499,1719
16.101249900000003,373
16.1037499,235
16.1062499,1590
16.108749900000003,2621
16.1112499,2853
16.113749900000002,2420
16.116249900000003,1108
16.1187499,48
16.121249900000002,536
16.1237499,2009
16.1262499,2782
16.128749900000003,2806
16.1312499,2097
16.1337499,652
16.136249900000003,20
16.1387499,1053
16.141249900000002,2383
16.143749900000003,2873
16.1462499,2668
16.148749900000002,1640
16.1512499,294
16.1537499,188
16.156249900000002,1574
16.1587499,2620
16.1612499,2855
16.163749900000003,2410
16.1662499,1100
16.1687499,56
16.171249900000003,560
16.1737499,2027
16.176249900000002,2792
16.178749900000003,2800
16.1812499,2083
16.183749900000002,642
16.1862499,17
16.1887499,1055
16.191249900000003,2373
16.1937499,2853
16.1962499,2647
16.198749900000003,1619
16.2012499,278
16.203749900000002,186
16.206249900000003,1577
16.2087499,2621
16.211249900000002,2858
16.2137499,2418
16.2162499,1103
16.218749900000002,59
16.2212499,570
16.2237499,2036
16.226249900000003,2790
16.2287499,2798
16.2312499,2077
16.233749900000003,625
16.2362499,4
16.238749900000002,1058
16.241249900000003,2375
16.2437499,2855
16.246249900000002,2649
16.2487499,1608
16.2512499,270
16.253749900000003,194
16.2562499,1595
16.2587499,2632
16.261249900000003,2863
16.2637499,2413
16.266249900000002,1089
16.268749900000003,54
16.2712499,583
16.273749900000002,2049
16.2762499,2795
16.2787499,2795
16.281249900000002,2068
16.2837499,612
16.2862499,1
16.288749900000003,1068
16.2912499,2383
16.2937499,2861
16.296249900000003,2650
16.2987499,1600
16.301249900000002,265
16.303749900000003,201
16.3062499,1606
16.308749900000002,2637
16.3112499,2860
16.3137499,2404
16.316249900000003,1071
16.3187499,41
16.3212499,576
16.323749900000003,2046
16.3262499,2790
16.328749900000002,2794
16.331249900000003,2064
16.3337499,613
16.336249900000002,16
16.3387499,1084
16.3412499,2389
16.343749900000002,2856
16.3462499,2640
16.3487499,1588
16.351249900000003,261
16.3537499,209
16.3562499,1621
16.358749900000003,2645
16.3612499,2868
16.363749900000002,2413
16.366249900000003,1069
16.3687499,1
16.371249900000002,526
16.3737499,1993
16.3762499,2752
16.378749900000003,2769
16.3812499,2048
16.3837499,612
16.386249900000003,30
16.3887499,1110
16.391249900000002,2405
16.393749900000003,2864
16.3962499,2639
16.398749900000002,1580
16.4012499,256
16.4037499,212
16.406249900000002,1619
16.4087499,2644
16.4112499,2864
16.413749900000003,2396
16.4162499,934
16.4187499,17
16.421249900000003,712
16.4237499,2067
16.426249900000002,2803
16.428749900000003,2797
16.4312499,2048
16.433749900000002,604
16.4362499,27
16.4387499,1116
16.441249900000003,2410
16.4437499,2868
16.4462499,2644
16.448749900000003,1575
16.4512499,249
16.453749900000002,215
16.456249900000003,1627
16.4587499,2647
16.461249900000002,2863
16.4637499,2394
16.4662499,1048
16.468749900000002,43
16.4712499,613
16.4737499,2081
16.476249900000003,2813
16.4787499,2797
16.4812499,2039
16.483749900000003,592
16.4862499,30
16.488749900000002,1127
16.491249900000003,2413
16.4937499,2866
16.496249900000002,2634
16.4987499,1563
16.5012499,246
16.503749900000003,230
16.5062499,1648
16.5087499,2657
16.511249900000003,2863
16.5137499,2392
16.516249900000002,1047
16.518749900000003,46
16.5212499,628
16.523749900000002,2086
16.5262499,2806
16.5287499,2787
16.531249900000002,2033
16.5337499,581
16.5362499,24
16.538749900000003,1131
16.5412499,2418
16.5437499,2869
16.546249900000003,2631
16.5487499,1553
16.551249900000002,244
16.553749900000003,236
16.5562499,1653
16.558749900000002,2658
16.5612499,2860
16.5637499,2383
16.566249900000003,1029
16.5687499,37
16.5712499,628
16.573749900000003,2093
16.5762499,2810
16.578749900000002,2787
16.581249900000003,2025
16.5837499,575
16.586249900000002,22
16.5887499,1134
16.5912499,2413
16.593749900000002,2860
16.5962499,2626
16.5987499,1548
16.601249900000003,238
16.6037499,240
16.6062499,1662
16.608749900000003,2657
16.6112499,2853
16.613749900000002,2378
16.616249900000003,1018
16.6187499,37
16.621249900000002,631
16.6237499,2081
16.6262499,2790
16.628749900000003,2769
16.6312499,2001
16.6337499,555
16.636249900000003,24
16.6387499,1179
16.641249900000002,2495
16.643749900000003,2932
16.6462499,2666
16.648749900000002,1554
16.6512499,232
16.6537499,235
16.656249900000002,1658
16.6587499,2655
16.6612499,2848
16.663749900000003,2360
16.6662499,1000
16.6687499,30
16.671249900000003,650
16.6737499,2107
16.676249900000002,2815
16.678749900000003,2787
16.6812499,2007
16.683749900000002,562
16.6862499,30
16.6887499,1158
16.691249900000003,2429
16.6937499,2868
16.6962499,2623
16.698749900000003,1525
16.7012499,220
16.703749900000002,241
16.706249900000003,1666
16.7087499,2655
16.711249900000002,2847
16.7137499,2354
16.7162499,990
16.718749900000002,19
16.7212499,644
16.7237499,2104
16.726249900000003,2806
16.7287499,2774
16.7312499,1991
16.733749900000003,544
16.7362499,30
16.738749900000002,1174
16.741249900000003,2436
16.7437499,2860
16.746249900000002,2603
16.7487499,1503
16.7512499,209
16.753749900000003,249
16.7562499,1682
16.7587499,2668
16.761249900000003,2855
16.7637499,2357
16.766249900000002,987
16.768749900000003,25
16.7712499,663
16.773749900000002,2118
16.7762499,2816
16.7787499,2779
16.781249900000002,1993
16.7837499,546
16.7862499,35
16.788749900000003,1184
16.7912499,2447
16.7937499,2873
16.796249900000003,2613
16.7987499,1503
16.801249900000002,212
16.803749900000003,261
16.8062499,1695
16.808749900000002,2673
16.8112499,2853
16.8137499,2350
16.816249900000003,978
16.8187499,29
16.8212499,792
16.823749900000003,2213
16.8262499,2835
16.828749900000002,2742
16.831249900000003,1975
16.8337499,533
16.836249900000002,37
16.8387499,1194
16.8412499,2450
16.843749900000002,2868
16.8462499,2600
16.8487499,1487
16.851249900000003,209
16.8537499,269
16.8562499,1708
16.858749900000003,2684
16.8612499,2856
16.863749900000002,2342
16.866249900000003,966
16.8687499,24
16.871249900000002,684
16.8737499,2136
16.8762499,2821
16.878749900000003,2771
16.8812499,1967
16.8837499,523
16.886249900000003,35
16.8887499,1202
16.891249900000002,2457
16.893749900000003,2873
16.8962499,2602
16.898749900000002,1480
16.9012499,199
16.9037499,267
16.906249900000002,1706
16.9087499,2674
16.9112499,2786
16.913749900000003,2255
16.9162499,899
16.9187499,1
16.921249900000003,684
16.9237499,2141
16.926249900000002,2824
16.928749900000003,2774
16.9312499,1970
16.933749900000002,531
16.9362499,45
16.9387499,1211
16.941249900000003,2454
16.9437499,2866
16.9462499,2600
16.948749900000003,1475
16.9512499,198
16.953749900000002,275
16.956249900000003,1714
16.9587499,2681
16.961249900000002,2852
16.9637499,2334
16.9662499,957
16.968749900000002,29
16.9712499,705
16.9737499,2149
16.976249900000003,2826
16.9787499,2771
16.9812499,1959
16.983749900000003,517
16.9862499,43
16.988749900000002,1219
16.991249900000003,2463
16.9937499,2873
16.996249900000002,2599
16.9987499,1469
17.0012499,199
17.003749900000003,293
17.0062499,1732
17.0087499,2686
17.011249900000003,2848
17.0137499,2325
17.016249900000002,942
17.018749900000003,20
17.0212499,708
17.023749900000002,2152
17.0262499,2821
17.0287499,2763
17.031249900000002,1946
17.0337499,504
17.0362499,40
17.038749900000003,1223
17.0412499,2458
17.0437499,2861
17.046249900000003,2582
17.0487499,1448
17.051249900000002,190
17.053749900000003,293
17.0562499,1738
17.058749900000002,2690
17.0612499,2845
17.0637499,2318
17.066249900000003,926
17.0687499,19
17.0712499,718
17.073749900000003,2162
17.0762499,2826
17.078749900000002,2758
17.081249900000003,1930
17.0837499,493
17.086249900000002,41
17.088749900000003,1239
17.0912499,2471
17.093749900000002,2866
17.0962499,2581
17.0987499,1437
17.101249900000003,178
17.1037499,291
17.1062499,1735
17.108749900000003,2687
17.1112499,2847
17.113749900000002,2317
17.116249900000003,926
17.1187499,20
17.121249900000002,731
17.1237499,2170
17.1262499,2831
17.128749900000003,2765
17.1312499,1930
17.1337499,496
17.136249900000003,54
17.1387499,1256
17.141249900000002,2483
17.143749900000003,2873
17.1462499,2586
17.148749900000002,1435
17.151249900000003,177
17.1537499,301
17.156249900000002,1749
17.1587499,2689
17.1612499,2837
17.163749900000003,2296
17.1662499,903
17.1687499,8
17.171249900000003,728
17.1737499,2167
17.176249900000002,2824
17.178749900000003,2757
17.1812499,1952
17.183749900000002,555
17.1862499,125
17.1887499,1316
17.191249900000003,2507
17.1937499,2874
17.1962499,2578
17.198749900000003,1414
17.2012499,165
17.203749900000002,302
17.206249900000003,1754
17.2087499,2689
17.211249900000002,2835
17.213749900000003,2294
17.2162499,895
17.218749900000002,9
17.2212499,739
17.2237499,2176
17.226249900000003,2824
17.2287499,2715
17.2312499,1795
17.233749900000003,388
17.2362499,51
17.238749900000002,1272
17.241249900000003,2487
17.2437499,2868
17.246249900000002,2570
17.2487499,1408
17.2512499,164
17.253749900000003,314
17.2562499,1770
17.2587499,2703
17.261249900000003,2840
17.2637499,2292
17.266249900000002,897
17.268749900000003,16
17.2712499,755
17.273749900000002,2186
17.276249900000003,2821
17.2787499,2740
17.281249900000002,1898
17.2837499,468
17.2862499,58
17.288749900000003,1279
17.2912499,2483
17.2937499,2860
17.296249900000003,2555
17.2987499,1393
17.301249900000002,159
17.303749900000003,322
17.3062499,1780
17.308749900000002,2703
17.3112499,2840
17.3137499,2288
17.316249900000003,884
17.3187499,8
17.3212499,754
17.323749900000003,2184
17.3262499,2824
17.328749900000002,2744
17.331249900000003,1891
17.3337499,470
17.336249900000002,67
17.338749900000003,1290
17.3412499,2492
17.343749900000002,2868
17.3462499,2563
17.3487499,1393
17.351249900000003,162
17.3537499,335
17.3562499,1791
17.358749900000003,2707
17.3612499,2837
17.363749900000002,2286
17.366249900000003,878
17.3687499,8
17.371249900000002,766
17.3737499,2193
17.3762499,2827
17.378749900000003,2747
17.3812499,1891
17.3837499,465
17.386249900000003,75
17.3887499,1310
17.391249900000002,2502
17.393749900000003,2868
17.3962499,2560
17.398749900000002,1387
17.401249900000003,162
17.4037499,343
17.406249900000002,1801
17.4087499,2710
17.4112499,2834
17.413749900000003,2268
17.4162499,862
17.4187499,9
17.421249900000003,784
17.4237499,2210
17.426249900000002,2837
